# Macroscopic dielectric function obtained with the BS equation.
#  RPA L0 with KS energies and KS wavefunctions     LOCAL FIELD EFFECTS INCLUDED
# RESONANT-ONLY calculation
# Coulomb term constructed with full W(G1,G2)
# Scissor operator energy =  0.8000 [eV]
# Tolerance = -0.0010 0.0000
# npweps  = 113
# npwwfn  = 259
# nbands  = 8
# loband  = 2
# nkibz   = 3
# nkbz    = 8
# Lorentzian broadening =  0.0001 [eV]
# List of q-points for the optical limit:
# q =  0.938821, 0.000000, 0.000000, [Reduced coords] 
# q =  0.000000, 0.938821, 0.000000, [Reduced coords] 
# q =  0.000000, 0.000000, 0.938821, [Reduced coords] 
# q =  0.000000, 0.813043, 0.813043, [Reduced coords] 
# q =  0.813043, 0.000000, 0.813043, [Reduced coords] 
# q =  0.813043, 0.813043, 0.000000, [Reduced coords] 
# omega [eV]    RE(eps(q=1)) IM(eps(q=1) RE(eps(q=2) ) ... 
  0.000   57.6109    0.0000   57.4571    0.0000   57.4716    0.0000   57.5569    0.0000   57.6940    0.0000   57.6842    0.0000
  0.010   57.6115    0.0215   57.4577    0.0229   57.4723    0.0228   57.5575    0.0215   57.6946    0.0231   57.6848    0.0231
  0.020   57.6134    0.0430   57.4595    0.0457   57.4741    0.0457   57.5594    0.0430   57.6964    0.0462   57.6866    0.0463
  0.030   57.6165    0.0646   57.4626    0.0686   57.4772    0.0685   57.5625    0.0645   57.6996    0.0693   57.6898    0.0694
  0.040   57.6208    0.0861   57.4669    0.0915   57.4815    0.0914   57.5668    0.0860   57.7039    0.0925   57.6941    0.0926
  0.050   57.6264    0.1076   57.4724    0.1144   57.4870    0.1142   57.5723    0.1075   57.7095    0.1156   57.6997    0.1158
  0.060   57.6332    0.1292   57.4792    0.1373   57.4937    0.1371   57.5791    0.1291   57.7163    0.1388   57.7065    0.1390
  0.070   57.6412    0.1508   57.4871    0.1602   57.5017    0.1600   57.5872    0.1506   57.7244    0.1619   57.7146    0.1622
  0.080   57.6505    0.1724   57.4963    0.1831   57.5109    0.1829   57.5965    0.1722   57.7337    0.1851   57.7239    0.1854
  0.090   57.6610    0.1940   57.5068    0.2061   57.5214    0.2059   57.6070    0.1938   57.7443    0.2084   57.7345    0.2087
  0.100   57.6728    0.2156   57.5185    0.2291   57.5331    0.2289   57.6188    0.2154   57.7561    0.2316   57.7463    0.2320
  0.110   57.6858    0.2373   57.5314    0.2521   57.5460    0.2519   57.6318    0.2370   57.7692    0.2549   57.7593    0.2553
  0.120   57.7001    0.2590   57.5455    0.2752   57.5602    0.2749   57.6460    0.2587   57.7835    0.2782   57.7737    0.2786
  0.130   57.7156    0.2808   57.5609    0.2983   57.5756    0.2980   57.6615    0.2804   57.7990    0.3015   57.7892    0.3020
  0.140   57.7324    0.3025   57.5776    0.3214   57.5922    0.3211   57.6783    0.3022   57.8159    0.3249   57.8060    0.3254
  0.150   57.7504    0.3244   57.5954    0.3446   57.6101    0.3442   57.6963    0.3240   57.8339    0.3484   57.8241    0.3489
  0.160   57.7697    0.3462   57.6146    0.3678   57.6292    0.3674   57.7155    0.3458   57.8533    0.3719   57.8435    0.3724
  0.170   57.7902    0.3681   57.6349    0.3911   57.6496    0.3907   57.7361    0.3677   57.8739    0.3954   57.8641    0.3960
  0.180   57.8120    0.3901   57.6566    0.4144   57.6712    0.4140   57.7578    0.3897   57.8958    0.4190   57.8859    0.4196
  0.190   57.8351    0.4121   57.6794    0.4378   57.6941    0.4373   57.7809    0.4116   57.9189    0.4426   57.9091    0.4433
  0.200   57.8594    0.4342   57.7036    0.4612   57.7182    0.4607   57.8052    0.4337   57.9433    0.4663   57.9335    0.4670
  0.210   57.8850    0.4563   57.7289    0.4847   57.7436    0.4842   57.8308    0.4558   57.9690    0.4901   57.9592    0.4908
  0.220   57.9119    0.4785   57.7556    0.5083   57.7703    0.5078   57.8576    0.4780   57.9960    0.5139   57.9861    0.5146
  0.230   57.9401    0.5007   57.7835    0.5319   57.7982    0.5314   57.8857    0.5002   58.0242    0.5378   58.0144    0.5386
  0.240   57.9695    0.5231   57.8127    0.5556   57.8274    0.5550   57.9151    0.5225   58.0537    0.5617   58.0439    0.5626
  0.250   58.0002    0.5455   57.8432    0.5794   57.8579    0.5788   57.9458    0.5448   58.0846    0.5858   58.0747    0.5867
  0.260   58.0323    0.5679   57.8749    0.6033   57.8896    0.6026   57.9778    0.5673   58.1167    0.6099   58.1068    0.6108
  0.270   58.0656    0.5905   57.9080    0.6272   57.9227    0.6265   58.0111    0.5898   58.1501    0.6341   58.1402    0.6350
  0.280   58.1002    0.6131   57.9423    0.6512   57.9570    0.6505   58.0457    0.6124   58.1848    0.6584   58.1749    0.6594
  0.290   58.1361    0.6358   57.9779    0.6753   57.9926    0.6746   58.0815    0.6351   58.2208    0.6828   58.2110    0.6838
  0.300   58.1733    0.6586   58.0148    0.6995   58.0296    0.6988   58.1187    0.6579   58.2582    0.7072   58.2483    0.7083
  0.310   58.2118    0.6815   58.0530    0.7238   58.0678    0.7230   58.1572    0.6807   58.2968    0.7318   58.2869    0.7329
  0.320   58.2517    0.7044   58.0925    0.7482   58.1073    0.7474   58.1970    0.7037   58.3368    0.7565   58.3269    0.7576
  0.330   58.2929    0.7275   58.1334    0.7727   58.1482    0.7719   58.2381    0.7267   58.3781    0.7813   58.3682    0.7824
  0.340   58.3354    0.7507   58.1755    0.7973   58.1903    0.7964   58.2806    0.7499   58.4208    0.8061   58.4109    0.8073
  0.350   58.3792    0.7740   58.2190    0.8220   58.2338    0.8211   58.3244    0.7731   58.4647    0.8311   58.4548    0.8323
  0.360   58.4244    0.7974   58.2638    0.8468   58.2786    0.8459   58.3695    0.7965   58.5101    0.8562   58.5002    0.8575
  0.370   58.4709    0.8209   58.3100    0.8717   58.3248    0.8708   58.4160    0.8200   58.5568    0.8815   58.5468    0.8827
  0.380   58.5188    0.8445   58.3575    0.8968   58.3723    0.8958   58.4639    0.8436   58.6048    0.9068   58.5949    0.9081
  0.390   58.5681    0.8682   58.4063    0.9219   58.4212    0.9210   58.5131    0.8673   58.6542    0.9323   58.6443    0.9336
  0.400   58.6187    0.8920   58.4565    0.9473   58.4714    0.9462   58.5637    0.8911   58.7050    0.9579   58.6951    0.9593
  0.410   58.6707    0.9160   58.5081    0.9727   58.5230    0.9717   58.6156    0.9151   58.7572    0.9836   58.7472    0.9850
  0.420   58.7241    0.9401   58.5610    0.9982   58.5759    0.9972   58.6689    0.9392   58.8107    1.0095   58.8008    1.0109
  0.430   58.7789    0.9644   58.6153    1.0240   58.6302    1.0229   58.7237    0.9634   58.8657    1.0355   58.8557    1.0370
  0.440   58.8351    0.9887   58.6710    1.0498   58.6860    1.0487   58.7798    0.9877   58.9220    1.0617   58.9121    1.0632
  0.450   58.8926    1.0133   58.7281    1.0758   58.7431    1.0747   58.8373    1.0122   58.9798    1.0880   58.9698    1.0895
  0.460   58.9516    1.0379   58.7866    1.1019   58.8016    1.1008   58.8962    1.0369   59.0390    1.1144   59.0290    1.1160
  0.470   59.0121    1.0627   58.8465    1.1282   58.8615    1.1271   58.9566    1.0617   59.0996    1.1411   59.0896    1.1427
  0.480   59.0739    1.0877   58.9078    1.1547   58.9229    1.1535   59.0184    1.0866   59.1617    1.1678   59.1517    1.1695
  0.490   59.1372    1.1128   58.9706    1.1813   58.9856    1.1801   59.0816    1.1117   59.2252    1.1948   59.2152    1.1965
  0.500   59.2020    1.1381   59.0348    1.2081   59.0498    1.2069   59.1463    1.1370   59.2901    1.2219   59.2801    1.2236
  0.510   59.2682    1.1635   59.1004    1.2351   59.1155    1.2338   59.2125    1.1624   59.3565    1.2492   59.3465    1.2510
  0.520   59.3359    1.1891   59.1675    1.2622   59.1826    1.2609   59.2801    1.1880   59.4244    1.2767   59.4144    1.2785
  0.530   59.4050    1.2149   59.2361    1.2896   59.2512    1.2882   59.3492    1.2138   59.4938    1.3044   59.4838    1.3062
  0.540   59.4757    1.2409   59.3062    1.3171   59.3213    1.3157   59.4197    1.2397   59.5647    1.3322   59.5547    1.3341
  0.550   59.5478    1.2670   59.3777    1.3448   59.3928    1.3434   59.4918    1.2659   59.6371    1.3603   59.6270    1.3622
  0.560   59.6215    1.2934   59.4507    1.3727   59.4659    1.3712   59.5654    1.2922   59.7110    1.3885   59.7009    1.3905
  0.570   59.6967    1.3199   59.5252    1.4007   59.5404    1.3993   59.6405    1.3187   59.7864    1.4170   59.7763    1.4189
  0.580   59.7734    1.3466   59.6013    1.4290   59.6165    1.4276   59.7172    1.3454   59.8634    1.4456   59.8533    1.4476
  0.590   59.8517    1.3736   59.6789    1.4576   59.6941    1.4561   59.7954    1.3723   59.9419    1.4745   59.9318    1.4766
  0.600   59.9315    1.4007   59.7580    1.4863   59.7733    1.4848   59.8751    1.3994   60.0220    1.5036   60.0119    1.5057
  0.610   60.0129    1.4280   59.8387    1.5152   59.8540    1.5137   59.9564    1.4268   60.1036    1.5329   60.0935    1.5350
  0.620   60.0959    1.4556   59.9210    1.5444   59.9363    1.5428   60.0393    1.4543   60.1869    1.5625   60.1768    1.5646
  0.630   60.1804    1.4834   60.0048    1.5738   60.0201    1.5722   60.1238    1.4821   60.2717    1.5923   60.2616    1.5945
  0.640   60.2666    1.5114   60.0902    1.6034   60.1056    1.6018   60.2099    1.5101   60.3582    1.6223   60.3480    1.6245
  0.650   60.3544    1.5396   60.1772    1.6333   60.1926    1.6317   60.2976    1.5383   60.4462    1.6526   60.4361    1.6548
  0.660   60.4438    1.5681   60.2659    1.6634   60.2813    1.6618   60.3870    1.5668   60.5360    1.6831   60.5258    1.6854
  0.670   60.5349    1.5968   60.3562    1.6938   60.3716    1.6921   60.4780    1.5955   60.6273    1.7139   60.6172    1.7162
  0.680   60.6277    1.6258   60.4481    1.7245   60.4636    1.7227   60.5706    1.6245   60.7204    1.7450   60.7102    1.7473
  0.690   60.7221    1.6550   60.5417    1.7554   60.5572    1.7536   60.6649    1.6537   60.8151    1.7763   60.8049    1.7787
  0.700   60.8182    1.6845   60.6369    1.7865   60.6525    1.7848   60.7610    1.6832   60.9115    1.8079   60.9013    1.8103
  0.710   60.9160    1.7142   60.7339    1.8180   60.7494    1.8162   60.8587    1.7129   61.0097    1.8398   60.9995    1.8422
  0.720   61.0156    1.7442   60.8326    1.8497   60.8481    1.8479   60.9581    1.7429   61.1095    1.8720   61.0993    1.8744
  0.730   61.1168    1.7745   60.9329    1.8817   60.9485    1.8799   61.0593    1.7732   61.2111    1.9045   61.2009    1.9069
  0.740   61.2199    1.8051   61.0351    1.9141   61.0507    1.9122   61.1623    1.8038   61.3145    1.9372   61.3043    1.9398
  0.750   61.3247    1.8360   61.1389    1.9467   61.1546    1.9448   61.2670    1.8347   61.4197    1.9703   61.4094    1.9729
  0.760   61.4313    1.8671   61.2446    1.9796   61.2603    1.9777   61.3735    1.8658   61.5266    2.0037   61.5163    2.0063
  0.770   61.5397    1.8986   61.3520    2.0129   61.3677    2.0109   61.4818    1.8973   61.6354    2.0374   61.6251    2.0401
  0.780   61.6499    1.9304   61.4612    2.0464   61.4770    2.0444   61.5919    1.9291   61.7459    2.0715   61.7357    2.0742
  0.790   61.7620    1.9625   61.5723    2.0803   61.5881    2.0783   61.7039    1.9612   61.8584    2.1059   61.8481    2.1086
  0.800   61.8759    1.9949   61.6852    2.1146   61.7010    2.1125   61.8177    1.9936   61.9727    2.1406   61.9624    2.1434
  0.810   61.9917    2.0277   61.7999    2.1492   61.8158    2.1471   61.9334    2.0264   62.0889    2.1757   62.0786    2.1785
  0.820   62.1094    2.0608   61.9166    2.1841   61.9325    2.1820   62.0510    2.0595   62.2070    2.2112   62.1966    2.2140
  0.830   62.2291    2.0942   62.0351    2.2194   62.0510    2.2173   62.1706    2.0929   62.3270    2.2470   62.3166    2.2498
  0.840   62.3506    2.1280   62.1556    2.2551   62.1715    2.2529   62.2920    2.1267   62.4489    2.2832   62.4386    2.2861
  0.850   62.4742    2.1622   62.2780    2.2911   62.2939    2.2890   62.4155    2.1609   62.5729    2.3198   62.5625    2.3227
  0.860   62.5997    2.1967   62.4023    2.3275   62.4183    2.3254   62.5409    2.1955   62.6988    2.3568   62.6884    2.3597
  0.870   62.7272    2.2316   62.5287    2.3644   62.5447    2.3622   62.6683    2.2304   62.8267    2.3942   62.8163    2.3971
  0.880   62.8567    2.2669   62.6570    2.4016   62.6731    2.3994   62.7977    2.2657   62.9567    2.4320   62.9463    2.4350
  0.890   62.9883    2.3026   62.7874    2.4392   62.8035    2.4370   62.9292    2.3014   63.0887    2.4702   63.0783    2.4732
  0.900   63.1220    2.3387   62.9198    2.4773   62.9359    2.4750   63.0627    2.3375   63.2228    2.5089   63.2124    2.5119
  0.910   63.2577    2.3752   63.0543    2.5158   63.0705    2.5135   63.1984    2.3740   63.3590    2.5480   63.3485    2.5510
  0.920   63.3956    2.4121   63.1908    2.5547   63.2071    2.5524   63.3361    2.4110   63.4973    2.5875   63.4869    2.5906
  0.930   63.5356    2.4495   63.3295    2.5941   63.3458    2.5917   63.4760    2.4484   63.6378    2.6276   63.6273    2.6306
  0.940   63.6778    2.4873   63.4704    2.6339   63.4867    2.6315   63.6181    2.4862   63.7804    2.6680   63.7700    2.6712
  0.950   63.8222    2.5256   63.6134    2.6742   63.6297    2.6718   63.7623    2.5245   63.9253    2.7090   63.9148    2.7121
  0.960   63.9688    2.5643   63.7586    2.7150   63.7750    2.7126   63.9088    2.5632   64.0724    2.7504   64.0619    2.7536
  0.970   64.1176    2.6035   63.9060    2.7563   63.9225    2.7538   64.0576    2.6025   64.2217    2.7924   64.2112    2.7956
  0.980   64.2687    2.6432   64.0557    2.7981   64.0722    2.7956   64.2086    2.6422   64.3733    2.8349   64.3628    2.8381
  0.990   64.4222    2.6833   64.2077    2.8404   64.2242    2.8379   64.3619    2.6824   64.5272    2.8779   64.5167    2.8811
  1.000   64.5779    2.7240   64.3619    2.8832   64.3785    2.8806   64.5175    2.7231   64.6835    2.9214   64.6730    2.9247
  1.010   64.7361    2.7652   64.5185    2.9266   64.5351    2.9240   64.6755    2.7643   64.8421    2.9655   64.8316    2.9688
  1.020   64.8966    2.8069   64.6775    2.9705   64.6941    2.9679   64.8359    2.8061   65.0032    3.0101   64.9926    3.0135
  1.030   65.0595    2.8492   64.8389    3.0149   64.8555    3.0123   64.9987    2.8484   65.1667    3.0553   65.1561    3.0587
  1.040   65.2249    2.8920   65.0026    3.0599   65.0194    3.0573   65.1640    2.8912   65.3326    3.1012   65.3220    3.1045
  1.050   65.3928    2.9354   65.1689    3.1056   65.1856    3.1029   65.3318    2.9346   65.5010    3.1476   65.4904    3.1510
  1.060   65.5632    2.9793   65.3376    3.1518   65.3544    3.1491   65.5020    2.9786   65.6720    3.1946   65.6613    3.1980
  1.070   65.7361    3.0238   65.5088    3.1986   65.5257    3.1959   65.6749    3.0232   65.8455    3.2422   65.8348    3.2457
  1.080   65.9116    3.0690   65.6827    3.2461   65.6996    3.2433   65.8503    3.0684   66.0216    3.2905   66.0110    3.2940
  1.090   66.0898    3.1147   65.8590    3.2942   65.8760    3.2914   66.0283    3.1142   66.2003    3.3395   66.1897    3.3430
  1.100   66.2706    3.1611   66.0381    3.3429   66.0551    3.3401   66.2090    3.1607   66.3818    3.3891   66.3711    3.3926
  1.110   66.4541    3.2082   66.2197    3.3923   66.2368    3.3895   66.3924    3.2078   66.5659    3.4394   66.5552    3.4430
  1.120   66.6404    3.2559   66.4041    3.4424   66.4212    3.4396   66.5785    3.2556   66.7527    3.4904   66.7420    3.4940
  1.130   66.8294    3.3043   66.5912    3.4933   66.6084    3.4904   66.7674    3.3040   66.9424    3.5422   66.9317    3.5458
  1.140   67.0212    3.3533   66.7811    3.5448   66.7983    3.5419   66.9591    3.3532   67.1348    3.5947   67.1241    3.5983
  1.150   67.2159    3.4031   66.9738    3.5971   66.9911    3.5941   67.1537    3.4030   67.3302    3.6479   67.3194    3.6515
  1.160   67.4135    3.4536   67.1694    3.6501   67.1867    3.6471   67.3511    3.4536   67.5284    3.7019   67.5176    3.7056
  1.170   67.6140    3.5049   67.3679    3.7039   67.3852    3.7009   67.5515    3.5049   67.7295    3.7567   67.7188    3.7604
  1.180   67.8175    3.5569   67.5693    3.7584   67.5867    3.7554   67.7549    3.5570   67.9337    3.8123   67.9229    3.8160
  1.190   68.0240    3.6097   67.7736    3.8138   67.7911    3.8108   67.9612    3.6099   68.1409    3.8687   68.1301    3.8725
  1.200   68.2335    3.6633   67.9811    3.8700   67.9985    3.8669   68.1707    3.6636   68.3511    3.9260   68.3404    3.9298
  1.210   68.4462    3.7177   68.1915    3.9271   68.2091    3.9240   68.3833    3.7181   68.5645    3.9842   68.5537    3.9879
  1.220   68.6621    3.7729   68.4051    3.9850   68.4227    3.9819   68.5990    3.7734   68.7811    4.0432   68.7703    4.0470
  1.230   68.8811    3.8290   68.6219    4.0438   68.6395    4.0406   68.8179    3.8296   69.0009    4.1032   68.9900    4.1070
  1.240   69.1034    3.8860   68.8419    4.1035   68.8596    4.1003   69.0401    3.8867   69.2239    4.1640   69.2131    4.1679
  1.250   69.3291    3.9439   69.0651    4.1641   69.0829    4.1609   69.2656    3.9447   69.4503    4.2259   69.4394    4.2297
  1.260   69.5581    4.0027   69.2917    4.2257   69.3095    4.2225   69.4945    4.0036   69.6800    4.2887   69.6692    4.2926
  1.270   69.7905    4.0624   69.5216    4.2883   69.5395    4.2850   69.7268    4.0635   69.9132    4.3525   69.9023    4.3564
  1.280   70.0263    4.1231   69.7549    4.3518   69.7729    4.3486   69.9625    4.1243   70.1498    4.4174   70.1390    4.4213
  1.290   70.2657    4.1848   69.9918    4.4164   70.0098    4.4131   70.2018    4.1862   70.3900    4.4833   70.3791    4.4872
  1.300   70.5087    4.2475   70.2321    4.4821   70.2502    4.4788   70.4447    4.2490   70.6338    4.5503   70.6229    4.5542
  1.310   70.7553    4.3112   70.4761    4.5488   70.4942    4.5454   70.6912    4.3129   70.8812    4.6184   70.8703    4.6223
  1.320   71.0056    4.3761   70.7237    4.6166   70.7418    4.6132   70.9414    4.3779   71.1324    4.6876   71.1215    4.6916
  1.330   71.2597    4.4420   70.9750    4.6856   70.9932    4.6822   71.1953    4.4439   71.3873    4.7580   71.3764    4.7620
  1.340   71.5176    4.5090   71.2301    4.7557   71.2483    4.7522   71.4531    4.5111   71.6460    4.8296   71.6351    4.8336
  1.350   71.7794    4.5772   71.4890    4.8270   71.5073    4.8235   71.7148    4.5795   71.9087    4.9024   71.8978    4.9064
  1.360   72.0452    4.6466   71.7518    4.8995   71.7702    4.8960   71.9805    4.6490   72.1753    4.9765   72.1644    4.9805
  1.370   72.3150    4.7171   72.0185    4.9732   72.0370    4.9697   72.2502    4.7198   72.4460    5.0519   72.4351    5.0558
  1.380   72.5889    4.7890   72.2894    5.0483   72.3079    5.0448   72.5240    4.7918   72.7208    5.1285   72.7099    5.1325
  1.390   72.8669    4.8620   72.5643    5.1246   72.5829    5.1211   72.8019    4.8651   72.9997    5.2066   72.9888    5.2106
  1.400   73.1492    4.9364   72.8434    5.2023   72.8620    5.1988   73.0841    4.9397   73.2830    5.2860   73.2720    5.2900
  1.410   73.4358    5.0122   73.1267    5.2814   73.1454    5.2778   73.3706    5.0157   73.5705    5.3668   73.5596    5.3708
  1.420   73.7268    5.0893   73.4144    5.3619   73.4332    5.3583   73.6615    5.0930   73.8624    5.4492   73.8515    5.4532
  1.430   74.0223    5.1679   73.7064    5.4439   73.7253    5.4403   73.9569    5.1718   74.1589    5.5330   74.1479    5.5370
  1.440   74.3223    5.2478   74.0030    5.5274   74.0219    5.5237   74.2568    5.2520   74.4599    5.6184   74.4489    5.6224
  1.450   74.6269    5.3293   74.3041    5.6124   74.3231    5.6087   74.5614    5.3338   74.7655    5.7053   74.7546    5.7093
  1.460   74.9363    5.4124   74.6099    5.6990   74.6289    5.6953   74.8707    5.4170   75.0759    5.7939   75.0650    5.7979
  1.470   75.2505    5.4970   74.9204    5.7872   74.9395    5.7835   75.1848    5.5019   75.3911    5.8842   75.3802    5.8882
  1.480   75.5696    5.5832   75.2357    5.8771   75.2549    5.8733   75.5038    5.5884   75.7112    5.9762   75.7003    5.9802
  1.490   75.8937    5.6710   75.5559    5.9687   75.5752    5.9649   75.8278    5.6766   76.0364    6.0699   76.0255    6.0739
  1.500   76.2228    5.7606   75.8811    6.0620   75.9005    6.0582   76.1569    5.7665   76.3666    6.1655   76.3557    6.1695
  1.510   76.5572    5.8520   76.2115    6.1572   76.2309    6.1534   76.4912    5.8581   76.7020    6.2630   76.6911    6.2669
  1.520   76.8968    5.9451   76.5470    6.2542   76.5665    6.2504   76.8308    5.9516   77.0428    6.3623   77.0319    6.3663
  1.530   77.2418    6.0402   76.8878    6.3531   76.9074    6.3493   77.1758    6.0470   77.3889    6.4637   77.3780    6.4676
  1.540   77.5924    6.1371   77.2341    6.4540   77.2537    6.4502   77.5263    6.1443   77.7405    6.5670   77.7297    6.5710
  1.550   77.9485    6.2360   77.5858    6.5570   77.6055    6.5531   77.8824    6.2435   78.0978    6.6725   78.0870    6.6764
  1.560   78.3103    6.3369   77.9432    6.6620   77.9630    6.6580   78.2442    6.3448   78.4608    6.7801   78.4500    6.7840
  1.570   78.6780    6.4399   78.3063    6.7691   78.3262    6.7652   78.6118    6.4483   78.8297    6.8900   78.8188    6.8939
  1.580   79.0516    6.5451   78.6752    6.8785   78.6952    6.8745   78.9854    6.5538   79.2045    7.0021   79.1937    7.0060
  1.590   79.4313    6.6525   79.0501    6.9901   79.0701    6.9861   79.3651    6.6616   79.5854    7.1166   79.5746    7.1204
  1.600   79.8172    6.7621   79.4311    7.1040   79.4512    7.1000   79.7510    6.7717   79.9725    7.2334   79.9617    7.2373
  1.610   80.2094    6.8741   79.8183    7.2204   79.8385    7.2164   80.1432    6.8842   80.3659    7.3528   80.3552    7.3566
  1.620   80.6081    6.9885   80.2119    7.3392   80.2321    7.3352   80.5419    6.9990   80.7658    7.4748   80.7551    7.4785
  1.630   81.0134    7.1054   80.6119    7.4606   80.6322    7.4566   80.9472    7.1164   81.1724    7.5993   81.1617    7.6031
  1.640   81.4254    7.2248   81.0185    7.5846   81.0389    7.5806   81.3592    7.2364   81.5856    7.7266   81.5750    7.7304
  1.650   81.8442    7.3469   81.4319    7.7114   81.4524    7.7073   81.7781    7.3590   82.0058    7.8568   81.9952    7.8604
  1.660   82.2701    7.4717   81.8522    7.8409   81.8728    7.8368   82.2041    7.4844   82.4330    7.9898   82.4224    7.9934
  1.670   82.7032    7.5994   82.2795    7.9733   82.3002    7.9692   82.6372    7.6126   82.8674    8.1258   82.8569    8.1294
  1.680   83.1436    7.7299   82.7141    8.1087   82.7348    8.1045   83.0777    7.7438   83.3092    8.2648   83.2987    8.2684
  1.690   83.5916    7.8634   83.1559    8.2471   83.1768    8.2429   83.5257    7.8779   83.7585    8.4071   83.7480    8.4106
  1.700   84.0471    8.0000   83.6054    8.3887   83.6263    8.3845   83.9814    8.0152   84.2155    8.5526   84.2050    8.5561
  1.710   84.5106    8.1398   84.0625    8.5336   84.0834    8.5294   84.4449    8.1557   84.6803    8.7016   84.6699    8.7050
  1.720   84.9820    8.2829   84.5274    8.6818   84.5485    8.6776   84.9165    8.2995   85.1531    8.8540   85.1428    8.8574
  1.730   85.4617    8.4294   85.0004    8.8335   85.0216    8.8293   85.3962    8.4467   85.6342    9.0100   85.6240    9.0133
  1.740   85.9497    8.5794   85.4816    8.9888   85.5029    8.9846   85.8844    8.5975   86.1237    9.1698   86.1135    9.1730
  1.750   86.4463    8.7331   85.9713    9.1478   85.9926    9.1435   86.3812    8.7519   86.6218    9.3334   86.6116    9.3366
  1.760   86.9517    8.8905   86.4695    9.3106   86.4909    9.3064   86.8868    8.9102   87.1287    9.5010   87.1186    9.5041
  1.770   87.4661    9.0517   86.9766    9.4774   86.9981    9.4732   87.4014    9.0723   87.6446    9.6727   87.6345    9.6757
  1.780   87.9898    9.2170   87.4927    9.6483   87.5143    9.6440   87.9252    9.2385   88.1697    9.8486   88.1597    9.8516
  1.790   88.5228    9.3864   88.0180    9.8235   88.0397    9.8192   88.4584    9.4088   88.7042   10.0290   88.6944   10.0319
  1.800   89.0655    9.5601   88.5528   10.0030   88.5745    9.9987   89.0014    9.5835   89.2485   10.2139   89.2387   10.2168
  1.810   89.6181    9.7383   89.0972   10.1870   89.1191   10.1827   89.5542    9.7627   89.8026   10.4036   89.7929   10.4064
  1.820   90.1808    9.9211   89.6516   10.3758   89.6735   10.3714   90.1172    9.9466   90.3669   10.5981   90.3573   10.6008
  1.830   90.7540   10.1086   90.2162   10.5694   90.2382   10.5650   90.6907   10.1352   90.9416   10.7977   90.9321   10.8003
  1.840   91.3377   10.3010   90.7911   10.7680   90.8132   10.7636   91.2747   10.3288   91.5269   11.0025   91.5175   11.0050
  1.850   91.9324   10.4986   91.3768   10.9718   91.3990   10.9675   91.8698   10.5276   92.1232   11.2128   92.1139   11.2152
  1.860   92.5383   10.7015   91.9734   11.1811   91.9956   11.1767   92.4760   10.7317   92.7307   11.4287   92.7215   11.4310
  1.870   93.1557   10.9099   92.5812   11.3959   92.6036   11.3915   93.0938   10.9414   93.3497   11.6504   93.3406   11.6526
  1.880   93.7849   11.1239   93.2005   11.6165   93.2230   11.6121   93.7234   11.1569   93.9804   11.8781   93.9715   11.8802
  1.890   94.4261   11.3439   93.8317   11.8432   93.8542   11.8388   94.3650   11.3783   94.6233   12.1122   94.6145   12.1142
  1.900   95.0798   11.5701   94.4749   12.0761   94.4976   12.0717   95.0191   11.6059   95.2786   12.3527   95.2699   12.3546
  1.910   95.7461   11.8026   95.1306   12.3154   95.1534   12.3110   95.6860   11.8400   95.9466   12.6000   95.9381   12.6018
  1.920   96.4256   12.0417   95.7991   12.5615   95.8219   12.5571   96.3660   12.0807   96.6277   12.8544   96.6193   12.8560
  1.930   97.1185   12.2877   96.4807   12.8146   96.5036   12.8102   97.0594   12.3284   97.3222   13.1160   97.3140   13.1175
  1.940   97.8252   12.5408   97.1757   13.0750   97.1987   13.0706   97.7667   12.5833   98.0305   13.3852   98.0225   13.3866
  1.950   98.5461   12.8014   97.8846   13.3429   97.9077   13.3385   98.4882   12.8458   98.7529   13.6623   98.7451   13.6635
  1.960   99.2815   13.0697   98.6077   13.6186   98.6308   13.6142   99.2243   13.1160   99.4900   13.9476   99.4824   13.9487
  1.970  100.0319   13.3461   99.3454   13.9025   99.3686   13.8981   99.9754   13.3944  100.2419   14.2414  100.2345   14.2423
  1.980  100.7977   13.6308  100.0980   14.1949  100.1214   14.1905  100.7419   13.6813  101.0093   14.5442  101.0021   14.5449
  1.990  101.5793   13.9242  100.8662   14.4961  100.8896   14.4917  101.5243   13.9769  101.7925   14.8561  101.7855   14.8567
  2.000  102.3773   14.2268  101.6501   14.8065  101.6736   14.8021  102.3230   14.2818  102.5919   15.1777  102.5852   15.1781
  2.010  103.1919   14.5388  102.4504   15.1265  102.4740   15.1221  103.1385   14.5962  103.4081   15.5093  103.4017   15.5095
  2.020  104.0238   14.8606  103.2675   15.4565  103.2912   15.4521  103.9713   14.9206  104.2415   15.8514  104.2353   15.8514
  2.030  104.8735   15.1928  104.1019   15.7969  104.1256   15.7925  104.8220   15.2554  105.0926   16.2044  105.0867   16.2042
  2.040  105.7415   15.5356  104.9540   16.1481  104.9778   16.1438  105.6909   15.6011  105.9619   16.5688  105.9563   16.5684
  2.050  106.6282   15.8897  105.8245   16.5107  105.8484   16.5064  106.5787   15.9582  106.8500   16.9451  106.8448   16.9444
  2.060  107.5344   16.2555  106.7138   16.8851  106.7378   16.8808  107.4859   16.3270  107.7575   17.3337  107.7526   17.3329
  2.070  108.4606   16.6336  107.6225   17.2719  107.6466   17.2676  108.4132   16.7083  108.6848   17.7354  108.6803   17.7343
  2.080  109.4073   17.0244  108.5513   17.6716  108.5754   17.6673  109.3612   17.1025  109.6327   18.1506  109.6285   18.1492
  2.090  110.3753   17.4286  109.5006   18.0847  109.5248   18.0804  110.3304   17.5103  110.6018   18.5800  110.5980   18.5783
  2.100  111.3651   17.8468  110.4712   18.5120  110.4955   18.5077  111.3216   17.9322  111.5926   19.0242  111.5892   19.0223
  2.110  112.3776   18.2796  111.4638   18.9540  111.4880   18.9498  112.3354   18.3690  112.6059   19.4839  112.6030   19.4817
  2.120  113.4133   18.7278  112.4789   19.4115  112.5032   19.4073  113.3726   18.8213  113.6424   19.9599  113.6400   19.9574
  2.130  114.4731   19.1921  113.5173   19.8852  113.5417   19.8810  114.4339   19.2899  114.7028   20.4529  114.7009   20.4501
  2.140  115.5577   19.6732  114.5798   20.3758  114.6042   20.3716  115.5200   19.7756  115.7879   20.9638  115.7865   20.9607
  2.150  116.6679   20.1720  115.6671   20.8842  115.6916   20.8800  116.6319   20.2792  116.8985   21.4934  116.8976   21.4900
  2.160  117.8046   20.6894  116.7800   21.4113  116.8045   21.4071  117.7703   20.8016  118.0353   22.0426  118.0350   22.0390
  2.170  118.9686   21.2262  117.9194   21.9579  117.9439   21.9538  118.9361   21.3438  119.1993   22.6126  119.1996   22.6085
  2.180  120.1609   21.7835  119.0861   22.5251  119.1106   22.5211  120.1303   21.9067  120.3913   23.2042  120.3923   23.1998
  2.190  121.3823   22.3624  120.2810   23.1140  120.3056   23.1099  121.3536   22.4915  121.6123   23.8186  121.6140   23.8139
  2.200  122.6339   22.9640  121.5050   23.7255  121.5296   23.7215  122.6073   23.0993  122.8632   24.4570  122.8656   24.4519
  2.210  123.9167   23.5893  122.7592   24.3610  122.7839   24.3570  123.8922   23.7313  124.1450   25.1207  124.1481   25.1152
  2.220  125.2318   24.2399  124.0446   25.0216  124.0692   25.0176  125.2095   24.3887  125.4587   25.8109  125.4627   25.8050
  2.230  126.5802   24.9168  125.3621   25.7087  125.3867   25.7048  126.5603   25.0731  126.8055   26.5292  126.8103   26.5229
  2.240  127.9632   25.6218  126.7130   26.4237  126.7376   26.4198  127.9457   25.7857  128.1864   27.2771  128.1922   27.2703
  2.250  129.3820   26.3562  128.0983   27.1682  128.1228   27.1644  129.3669   26.5283  129.6026   28.0561  129.6094   28.0489
  2.260  130.8377   27.1217  129.5192   27.9438  129.5437   27.9400  130.8252   27.3026  131.0554   28.8681  131.0632   28.8604
  2.270  132.3317   27.9201  130.9770   28.7523  131.0014   28.7485  132.3219   28.1102  132.5459   29.7149  132.5548   29.7068
  2.280  133.8654   28.7533  132.4729   29.5954  132.4973   29.5917  133.8584   28.9531  134.0755   30.5984  134.0856   30.5899
  2.290  135.4402   29.6233  134.0083   30.4753  134.0326   30.4716  135.4360   29.8335  135.6456   31.5210  135.6569   31.5119
  2.300  137.0576   30.5324  135.5846   31.3940  135.6088   31.3903  137.0563   30.7535  137.2575   32.4847  137.2701   32.4751
  2.310  138.7190   31.4828  137.2031   32.3538  137.2273   32.3502  138.7207   31.7155  138.9126   33.4922  138.9267   33.4821
  2.320  140.4260   32.4770  138.8655   33.3573  138.8895   33.3536  140.4309   32.7220  140.6126   34.5460  140.6281   34.5354
  2.330  142.1804   33.5177  140.5732   34.4070  140.5970   34.4034  142.1885   33.7759  142.3589   35.6490  142.3761   35.6378
  2.340  143.9838   34.6080  142.3278   35.5058  142.3515   35.5022  143.9951   34.8801  144.1532   36.8042  144.1720   36.7925
  2.350  145.8380   35.7508  144.1310   36.6568  144.1545   36.6532  145.8527   36.0377  145.9971   38.0149  146.0177   38.0027
  2.360  147.7448   36.9495  145.9844   37.8633  146.0077   37.8596  147.7629   37.2522  147.8923   39.2848  147.9149   39.2720
  2.370  149.7062   38.2079  147.8900   39.1287  147.9130   39.1251  149.7276   38.5274  149.8406   40.6176  149.8652   40.6042
  2.380  151.7240   39.5298  149.8493   40.4571  149.8721   40.4535  151.7489   39.8672  151.8437   42.0174  151.8705   42.0035
  2.390  153.8003   40.9195  151.8645   41.8525  151.8870   41.8488  153.8287   41.2760  153.9035   43.4887  153.9327   43.4743
  2.400  155.9372   42.3816  153.9372   43.3194  153.9594   43.3157  155.9690   42.7585  156.0219   45.0363  156.0536   45.0214
  2.410  158.1367   43.9211  156.0695   44.8626  156.0913   44.8588  158.1719   44.3198  158.2007   46.6656  158.2351   46.6501
  2.420  160.4011   45.5433  158.2633   46.4875  158.2848   46.4836  160.4396   45.9654  160.4419   48.3820  160.4791   48.3660
  2.430  162.7324   47.2543  160.5207   48.1997  160.5417   48.1957  162.7742   47.7012  162.7473   50.1919  162.7876   50.1754
  2.440  165.1331   49.0603  162.8437   50.0053  162.8642   50.0013  165.1778   49.5339  165.1189   52.1018  165.1625   52.0849
  2.450  167.6051   50.9682  165.2342   51.9113  165.2542   51.9071  167.6527   51.4704  167.5585   54.1189  167.6056   54.1016
  2.460  170.1509   52.9857  167.6943   53.9247  167.7138   53.9203  170.2010   53.5186  170.0680   56.2513  170.1188   56.2336
  2.470  172.7725   55.1210  170.2259   56.0536  170.2448   56.0490  172.8248   55.6868  172.6490   58.5074  172.7039   58.4895
  2.480  175.4722   57.3831  172.8309   58.3067  172.8491   58.3019  175.5261   57.9841  175.3031   60.8966  175.3624   60.8785
  2.490  178.2518   59.7817  175.5111   60.6934  175.5285   60.6882  178.3069   60.4206  178.0320   63.4291  178.0959   63.4109
  2.500  181.1134   62.3275  178.2681   63.2239  178.2847   63.2184  181.1689   63.0072  180.8366   66.1160  180.9056   66.0977
  2.510  184.0587   65.0324  181.1033   65.9096  181.1190   65.9036  184.1137   65.7559  183.7181   68.9694  183.7924   68.9513
  2.520  187.0890   67.9090  184.0178   68.7627  184.0326   68.7562  187.1425   68.6797  186.6770   72.0025  186.7571   71.9847
  2.530  190.2055   70.9714  187.0126   71.7967  187.0264   71.7896  190.2562   71.7930  189.7134   75.2299  189.7998   75.2126
  2.540  193.4090   74.2351  190.0881   75.0263  190.1007   75.0185  193.4553   75.1114  192.8270   78.6673  192.9201   78.6508
  2.550  196.6995   77.7168  193.2440   78.4675  193.2555   78.4589  196.7397   78.6521  196.0167   82.3321  196.1170   82.3166
  2.560  200.0765   81.4351  196.4796   82.1381  196.4898   82.1285  200.1083   82.4341  199.2805   86.2431  199.3885   86.2290
  2.570  203.5386   85.4103  199.7933   86.0573  199.8021   86.0465  203.5595   86.4780  202.6153   90.4211  202.7317   90.4088
  2.580  207.0833   89.6646  203.1822   90.2462  203.1896   90.2341  207.0901   90.8063  206.0167   94.8887  206.1422   94.8787
  2.590  210.7067   94.2224  206.6425   94.7281  206.6483   94.7145  210.6957   95.4441  209.4790   99.6705  209.6141   99.6633
  2.600  214.4035   99.1105  210.1685   99.5282  210.1727   99.5128  214.3702  100.4185  212.9941  104.7935  213.1396  104.7898
  2.610  218.1660  104.3582  213.7528  104.6743  213.7553  104.6569  218.1053  105.7592  216.5519  110.2871  216.7085  110.2877
  2.620  221.9844  109.9977  217.3855  110.1967  217.3862  110.1769  221.8900  111.4988  220.1392  116.1832  220.3078  116.1890
  2.630  225.8455  116.0638  221.0538  116.1283  221.0527  116.1058  225.7100  117.6729  223.7395  122.5164  223.9209  122.5284
  2.640  229.7326  122.5947  224.7416  122.5050  224.7386  122.4793  229.5475  124.3198  227.3322  129.3240  227.5271  129.3435
  2.650  233.6245  129.6319  228.4284  129.3657  228.4235  129.3363  233.3794  131.4814  230.8914  136.6462  231.1008  136.6746
  2.660  237.4945  137.2200  232.0886  136.7523  232.0819  136.7187  237.1775  139.2027  234.3855  144.5259  234.6103  144.5650
  2.670  241.3094  145.4070  235.6906  144.7097  235.6823  144.6714  240.9062  147.5318  237.7757  153.0084  238.0167  153.0603
  2.680  245.0281  154.2440  239.1955  153.2859  239.1856  153.2421  244.5220  156.5198  241.0148  162.1415  241.2726  162.2084
  2.690  248.5999  163.7850  242.5554  162.5311  242.5442  162.4810  247.9715  166.2202  244.0454  171.9742  244.3207  172.0588
  2.700  251.9630  174.0859  245.7122  172.4978  245.7002  172.4406  251.1897  176.6883  246.7985  182.5561  247.0918  182.6615
  2.710  255.0424  185.2037  248.5954  183.2394  248.5831  183.1741  254.0978  187.9800  249.1917  193.9362  249.5031  194.0659
  2.720  257.7474  197.1951  251.1203  194.8087  251.1084  194.7344  256.6013  200.1500  251.1267  206.1604  251.4560  206.3186
  2.730  259.9695  210.1139  253.1854  207.2565  253.1750  207.1721  258.5870  213.2493  252.4878  219.2694  252.8343  219.4605
  2.740  261.5795  224.0082  254.6705  220.6282  254.6630  220.5327  259.9214  227.3223  253.1396  233.2946  253.5019  233.5238
  2.750  262.4254  238.9159  255.4341  234.9604  255.4310  234.8528  260.4476  242.4017  252.9257  248.2540  253.3015  248.5267
  2.760  262.3304  254.8597  255.3115  250.2757  255.3150  250.1551  259.9843  258.5034  251.6675  264.1458  252.0534  264.4679
  2.770  261.0913  271.8395  254.1135  266.5767  254.1262  266.4425  258.3242  275.6188  249.1645  280.9418  249.5558  281.3196
  2.780  258.4789  289.8242  251.6265  283.8379  251.6513  283.6898  255.2353  293.7061  245.1964  298.5789  245.5868  299.0186
  2.790  254.2401  308.7412  247.6136  301.9966  247.6541  301.8349  250.4632  312.6803  239.5273  316.9497  239.9086  317.4572
  2.800  248.1033  328.4651  241.8197  320.9418  241.8798  320.7675  243.7379  332.4012  231.9131  335.8928  232.2750  336.4732
  2.810  239.7880  348.8049  233.9791  340.5034  234.0631  340.3186  234.7839  352.6621  222.1131  355.1837  222.4434  355.8407
  2.820  229.0194  369.4934  223.8285  360.4406  223.9406  360.2487  223.3357  373.1792  209.9064  374.5273  210.1906  375.2625
  2.830  215.5492  390.1777  211.1251  380.4334  211.2694  380.2390  209.1594  393.5842  195.1118  393.5547  195.3335  394.3668
  2.840  199.1820  410.4162  195.6707  400.0779  195.8504  399.8872  192.0793  413.4224  177.6121  411.8258  177.7541  412.7098
  2.850  179.8074  429.6838  177.3403  418.8890  177.5574  418.7097  172.0090  432.1605  157.3807  428.8407  157.4255  429.7871
  2.860  157.4326  447.3894  156.1132  436.3144  156.3679  436.1551  148.9832  449.2053  134.5062  444.0607  134.4374  445.0556
  2.870  132.2132  462.9072  132.1033  451.7601  132.3931  451.6305  123.1853  463.9368  109.2119  456.9407  109.0154  457.9652
  2.880  104.4743  475.6227  105.5808  464.6311  105.9007  464.5404   94.9659  475.7540   81.8646  466.9700   81.5308  468.0011
  2.890   74.7137  484.9896   76.9810  474.3821   77.3231  474.3385   64.8430  484.1302   52.9693  473.7186   52.4939  474.7306
  2.900   43.5835  490.5908   46.8925  480.5743   47.2463  480.5841   33.4813  488.6709   23.1457  476.8835   22.5307  477.8494
  2.910   11.8459  492.1925   16.0224  482.9291   16.3758  482.9957    1.6476  489.1639   -6.9128  476.3254   -7.6589  477.2190
  2.920  -19.6936  489.7806  -14.8598  481.3676  -14.5200  481.4913  -29.8534  485.6111  -36.4941  472.0908  -37.3566  472.8887
  2.930  -50.2664  483.5680  -44.9944  476.0267  -44.6813  476.2040  -60.2545  478.2337  -64.9292  464.4121  -65.8887  465.0953
  2.940  -79.2221  473.9695  -73.7073  467.2456  -73.4332  467.4697  -88.9006  467.4467  -91.6528  453.6847  -92.6869  454.2390
  2.950 -106.0961  461.5416 -100.4790  455.5209 -100.2540  455.7820 -115.3095  453.8043 -116.2533  440.4204 -117.3381  440.8375
  2.960 -130.6495  446.8957 -124.9907  441.4351 -124.8226  441.7207 -139.2064  437.9231 -138.5026  425.1838 -139.6141  425.4600
  2.970 -152.8653  430.5936 -147.1376  425.5647 -147.0307  425.8603 -160.5230  420.3929 -158.3582  408.5157 -159.4735  408.6517
  2.980 -172.8901  413.0470 -166.9944  408.3858 -166.9488  408.6753 -179.3529  401.6931 -175.9283  390.8579 -177.0254  390.8573
  2.990 -190.9146  394.4589 -184.7280  390.2038 -184.7384  390.4713 -195.8620  382.1407 -191.3960  372.4996 -192.4539  372.3691
  3.000 -207.0262  374.8541 -200.4723  371.1497 -200.5278  371.3819 -210.1766  361.9033 -204.9167  353.5781 -205.9146  353.3281
  3.010 -221.1097  354.2182 -214.2244  351.2678 -214.3096  351.4568 -222.3058  341.0898 -216.5333  334.1528 -217.4517  333.7986
  3.020 -232.8849  332.6796 -225.8344  330.6603 -225.9331  330.8058 -232.1551  319.8752 -226.1698  314.3224 -226.9934  313.8848
  3.030 -242.0753  310.6030 -235.1120  309.5911 -235.2114  309.6992 -239.6335  298.5671 -233.7163  294.3081 -234.4366  293.8116
  3.040 -248.5838  288.5238 -241.9687  288.4705 -242.0617  288.5505 -244.7667  277.5667 -239.1421  274.4412 -239.7585  273.9104
  3.050 -252.5547  266.9882 -246.4935  267.7484 -246.5787  267.8094 -247.7373  257.2653 -242.5545  255.0783 -243.0732  254.5344
  3.060 -254.3150  246.4214 -248.9315  247.8038 -249.0110  247.8520 -248.8431  237.9584 -244.1803  236.5142 -244.6116  235.9737
  3.070 -254.2702  227.0786 -249.6113  228.8889 -249.6887  228.9277 -248.4266  219.8163 -244.3079  218.9401 -244.6637  218.4142
  3.080 -252.8187  209.0633 -248.8745  211.1299 -248.9534  211.1599 -246.8167  202.8983 -243.2314  202.4446 -243.5236  201.9407
  3.090 -250.3067  192.3706 -247.0317  194.5543 -247.1150  194.5745 -244.2985  187.1848 -241.2163  187.0374 -241.4559  186.5594
  3.100 -247.0135  176.9297 -244.3437  179.1239 -244.4334  179.1319 -241.1038  172.6074 -238.4852  172.6755 -238.6820  172.2250
  3.110 -243.1543  162.6348 -241.0180  164.7618 -241.1151  164.7545 -237.4135  159.0715 -235.2154  159.2846 -235.3781  158.8617
  3.120 -238.8880  149.3653 -237.2131  151.3706 -237.3177  151.3445 -233.3635  146.4705 -231.5434  146.7745 -231.6795  146.3777
  3.130 -234.3274  136.9973 -233.0449  138.8452 -233.1561  138.7960 -229.0524  134.6950 -227.5695  135.0481 -227.6851  134.6748
  3.140 -229.5469  125.4105 -228.5926  127.0795 -228.7083  127.0027 -224.5467  123.6372 -223.3630  124.0073 -223.4629  123.6537
  3.150 -224.5885  114.4913 -223.9039  115.9718 -224.0208  115.8624 -219.8857  113.1939 -218.9660  113.5562 -219.0530  113.2179
  3.160 -219.4659  104.1360 -218.9982  105.4278 -219.1112  105.2807 -215.0836  103.2685 -214.3959  103.6037 -214.4704  103.2760
  3.170 -214.1667   94.2522 -213.8693   95.3637 -213.9712   95.1739 -210.1310   93.7723 -209.6456   94.0648 -209.7060   93.7440
  3.180 -208.6534   84.7620 -208.4864   85.7092 -208.5673   85.4724 -204.9946   84.6270 -204.6835   84.8640 -204.7254   84.5480
  3.190 -202.8625   75.6059 -202.7946   76.4125 -202.8414   76.1259 -199.6151   75.7689 -199.4503   75.9388 -199.4681   75.6293
  3.200 -196.7041   66.7503 -196.7147   67.4464 -196.7108   67.1105 -193.9050   67.1549 -193.8559   67.2480 -193.8447   66.9517
  3.210 -190.0612   58.1993 -190.1444   58.8192 -190.0699   58.4399 -187.7463   58.7755 -187.7763   58.7863 -187.7356   58.5147
  3.220 -182.7950   50.0133 -182.9636   50.5909 -182.7966   50.1819 -180.9919   50.6737 -181.0567   50.6071 -180.9950   50.3741
  3.230 -174.7609   42.3342 -175.0496   42.8931 -174.7695   42.4795 -173.4792   42.9732 -173.5289   42.8552 -173.4665   42.6696
  3.240 -165.8474   35.4101 -166.3104   35.9498 -165.9042   35.5696 -165.0653   35.9091 -165.0578   35.7987 -165.0241   35.6536
  3.250 -156.0441   29.6022 -156.7418   30.0822 -156.2127   29.7838 -155.6972   29.8448 -155.6261   29.8367 -155.6452   29.6996
  3.260 -145.5310   25.3408 -146.5022   25.6734 -145.8780   25.5071 -145.5112   25.2380 -145.4408   25.4384 -145.5073   25.2564
  3.270 -134.7438   23.0046 -135.9704   23.0710 -135.3055   23.0727 -134.9178   22.5201 -134.9957   22.9868 -135.0571   22.7164
  3.280 -124.3408   22.7447 -125.7302   22.4399 -125.0941   22.6143 -124.5863   21.9018 -124.9969   22.5773 -124.9703   22.2277
  3.290 -115.0319   24.3528 -116.4393   23.6372 -115.8946   23.9532 -115.2695   23.2120 -116.1350   23.9125 -115.9616   23.5607
  3.300 -107.3407   27.2860 -108.6267   26.2039 -108.2089   26.6067 -107.5373   25.9072 -108.8373   26.3994 -108.5328   26.1500
  3.310 -101.4497   30.8506 -102.5304   29.4996 -102.2437   29.9323 -101.5950   29.2723 -103.1732   29.3854 -102.8254   29.3031
  3.320  -97.2109   34.4224  -98.0650   32.9017  -97.8911   33.3200  -97.2945   32.6675  -98.9411   32.3597  -98.6554   32.4300
  3.330  -94.2717   37.5842  -94.9120   35.9652  -94.8212   36.3417  -94.2819   35.6765  -95.8273   35.0230  -95.6650   35.1685
  3.340  -92.2252   40.1586  -92.6704   38.4894  -92.6299   38.8149  -92.1626   38.1238  -93.5289   37.2522  -93.4818   37.3863
  3.350  -90.7338   42.1633  -91.0056   40.4826  -90.9889   40.7649  -90.6142   40.0105  -91.8082   39.0302  -91.8208   39.1060
  3.360  -89.6002   43.7116  -89.7270   42.0465  -89.7236   42.3016  -89.4327   41.4215  -90.4980   40.3860  -90.5129   40.4083
  3.370  -88.7539   44.9016  -88.7625   43.2627  -88.7753   43.5005  -88.5166   42.4425  -89.4845   41.3579  -89.4743   41.3608
  3.380  -88.1739   45.7620  -88.0794   44.1518  -88.1136   44.3715  -87.8151   43.1196  -88.6859   41.9794  -88.6551   41.9951
  3.390  -87.8212   46.2735  -87.6297   44.6979  -87.6850   44.8931  -87.2811   43.4653  -88.0359   42.2768  -88.0047   42.3194
  3.400  -87.6220   46.4146  -87.3391   44.8859  -87.4096   45.0515  -86.8531   43.4848  -87.4745   42.2746  -87.4621   42.3408
  3.410  -87.4847   46.1900  -87.1217   44.7231  -87.1991   44.8574  -86.4616   43.1964  -86.9461   42.0007  -86.9626   42.0781
  3.420  -87.3230   45.6344  -86.8964   44.2418  -86.9732   44.3468  -86.0419   42.6364  -86.4014   41.4899  -86.4473   41.5649
  3.430  -87.0697   44.8042  -86.5993   43.4930  -86.6699   43.5730  -85.5442   41.8547  -85.8012   40.7832  -85.8708   40.8460
  3.440  -86.6819   43.7653  -86.1876   42.5368  -86.2487   42.5967  -84.9376   40.9066  -85.1183   39.9248  -85.2038   39.9704
  3.450  -86.1396   42.5827  -85.6394   41.4336  -85.6893   41.4780  -84.2081   39.8455  -84.3378   38.9587  -84.4315   38.9862
  3.460  -85.4402   41.3142  -84.9490   40.2377  -84.9876   40.2706  -83.3554   38.7182  -83.4557   37.9248  -83.5516   37.9358
  3.470  -84.5932   40.0074  -84.1226   38.9948  -84.1503   39.0194  -82.3880   37.5630  -82.4760   36.8574  -82.5698   36.8547
  3.480  -83.6151   38.6986  -83.1733   37.7407  -83.1911   37.7594  -81.3196   36.4090  -81.4077   35.7838  -81.4972   35.7706
  3.490  -82.5251   37.4146  -82.1179   36.5022  -82.1268   36.5167  -80.1659   35.2776  -80.2629   34.7248  -80.3468   34.7041
  3.500  -81.3430   36.1735  -80.9741   35.2982  -80.9752   35.3098  -78.9428   34.1834  -79.0546   33.6955  -79.1327   33.6698
  3.510  -80.0875   34.9874  -79.7589   34.1414  -79.7531   34.1509  -77.6653   33.1358  -77.7955   32.7062  -77.8680   32.6774
  3.520  -78.7752   33.8631  -78.4881   33.0397  -78.4762   33.0477  -76.3466   32.1406  -76.4974   31.7635  -76.5648   31.7332
  3.530  -77.4208   32.8043  -77.1753   31.9974  -77.1580   32.0044  -74.9982   31.2005  -75.1709   30.8714  -75.2338   30.8407
  3.540  -76.0363   31.8120  -75.8323   31.0166  -75.8103   31.0228  -73.6299   30.3165  -73.8249   30.0315  -73.8840   30.0012
  3.550  -74.6322   30.8856  -74.4693   30.0974  -74.4429   30.1029  -72.2498   29.4880  -72.4672   29.2444  -72.5232   29.2150
  3.560  -73.2168   30.0236  -73.0944   29.2386  -73.0640   29.2437  -70.8645   28.7139  -71.1043   28.5094  -71.1577   28.4813
  3.570  -71.7971   29.2236  -71.7146   28.4386  -71.6805   28.4433  -69.4795   27.9923  -69.7415   27.8254  -69.7928   27.7988
  3.580  -70.3785   28.4832  -70.3354   27.6951  -70.2979   27.6994  -68.0990   27.3210  -68.3831   27.1908  -68.4328   27.1658
  3.590  -68.9657   27.7996  -68.9614   27.0056  -68.9207   27.0097  -66.7267   26.6979  -67.0328   26.6037  -67.0812   26.5803
  3.600  -67.5621   27.1698  -67.5963   26.3675  -67.5526   26.3713  -65.3653   26.1205  -65.6934   26.0621  -65.7409   26.0404
  3.610  -66.1706   26.5913  -66.2430   25.7782  -66.1963   25.7819  -64.0169   25.5866  -64.3672   25.5641  -64.4140   25.5441
  3.620  -64.7933   26.0613  -64.9038   25.2352  -64.8542   25.2387  -62.6831   25.0940  -63.0560   25.1078  -63.1024   25.0893
  3.630  -63.4321   25.5774  -63.5805   24.7359  -63.5280   24.7393  -61.3653   24.6405  -61.7612   24.6911  -61.8073   24.6742
  3.640  -62.0881   25.1372  -62.2745   24.2781  -62.2192   24.2814  -60.0643   24.2241  -60.4838   24.3125  -60.5299   24.2970
  3.650  -60.7623   24.7385  -60.9868   23.8595  -60.9288   23.8627  -58.7807   23.8429  -59.2248   23.9701  -59.2709   23.9559
  3.660  -59.4555   24.3794  -59.7182   23.4780  -59.6573   23.4813  -57.5148   23.4953  -57.9845   23.6623  -58.0309   23.6493
  3.670  -58.1680   24.0581  -58.4691   23.1317  -58.4054   23.1350  -56.2669   23.1795  -56.7635   23.3877  -56.8101   23.3759
  3.680  -56.9000   23.7728  -57.2397   22.8187  -57.1733   22.8222  -55.0368   22.8940  -55.5619   23.1450  -55.6089   23.1341
  3.690  -55.6518   23.5221  -56.0303   22.5374  -55.9611   22.5411  -53.8246   22.6377  -54.3798   22.9328  -54.4272   22.9229
  3.700  -54.4232   23.3047  -54.8408   22.2864  -54.7686   22.2903  -52.6297   22.4091  -53.2172   22.7502  -53.2650   22.7410
  3.710  -53.2142   23.1193  -53.6709   22.0641  -53.5958   22.0684  -51.4520   22.2073  -52.0740   22.5961  -52.1222   22.5876
  3.720  -52.0245   22.9651  -52.5204   21.8694  -52.4424   21.8741  -50.2909   22.0312  -50.9501   22.4696  -50.9986   22.4617
  3.730  -50.8541   22.8411  -51.3889   21.7010  -51.3079   21.7063  -49.1459   21.8801  -49.8451   22.3701  -49.8940   22.3625
  3.740  -49.7025   22.7466  -50.2760   21.5582  -50.1920   21.5641  -48.0164   21.7532  -48.7589   22.2968  -48.8080   22.2896
  3.750  -48.5695   22.6811  -49.1812   21.4399  -49.0941   21.4466  -46.9016   21.6500  -47.6912   22.2493  -47.7405   22.2423
  3.760  -47.4548   22.6440  -48.1040   21.3455  -48.0136   21.3530  -45.8010   21.5700  -46.6417   22.2271  -46.6911   22.2204
  3.770  -46.3582   22.6352  -47.0436   21.2743  -46.9501   21.2829  -44.7139   21.5130  -45.6102   22.2301  -45.6596   22.2234
  3.780  -45.2795   22.6543  -45.9997   21.2260  -45.9028   21.2356  -43.6393   21.4787  -44.5964   22.2579  -44.6456   22.2513
  3.790  -44.2184   22.7014  -44.9714   21.2002  -44.8711   21.2111  -42.5767   21.4671  -43.6001   22.3106  -43.6490   22.3041
  3.800  -43.1749   22.7766  -43.9581   21.1966  -43.8544   21.2089  -41.5252   21.4784  -42.6212   22.3881  -42.6696   22.3816
  3.810  -42.1489   22.8798  -42.9593   21.2153  -42.8520   21.2292  -40.4841   21.5127  -41.6595   22.4906  -41.7072   22.4842
  3.820  -41.1405   23.0114  -41.9742   21.2563  -41.8633   21.2719  -39.4526   21.5706  -40.7150   22.6182  -40.7619   22.6120
  3.830  -40.1498   23.1717  -41.0022   21.3198  -40.8876   21.3374  -38.4301   21.6524  -39.7877   22.7713  -39.8335   22.7653
  3.840  -39.1771   23.3609  -40.0428   21.4063  -39.9244   21.4260  -37.4157   21.7590  -38.8778   22.9501  -38.9224   22.9446
  3.850  -38.2227   23.5796  -39.0954   21.5162  -38.9730   21.5383  -36.4089   21.8912  -37.9853   23.1551  -38.0286   23.1502
  3.860  -37.2871   23.8280  -38.1594   21.6502  -38.0330   21.6750  -35.4090   22.0501  -37.1107   23.3868  -37.1524   23.3828
  3.870  -36.3709   24.1066  -37.2344   21.8093  -37.1039   21.8370  -34.4155   22.2369  -36.2542   23.6457  -36.2944   23.6427
  3.880  -35.4747   24.4158  -36.3201   21.9945  -36.1853   22.0254  -33.4280   22.4530  -35.4163   23.9322  -35.4549   23.9307
  3.890  -34.5992   24.7560  -35.4161   22.2070  -35.2771   22.2415  -32.4460   22.7001  -34.5975   24.2471  -34.6346   24.2472
  3.900  -33.7452   25.1273  -34.5224   22.4483  -34.3790   22.4867  -31.4693   22.9801  -33.7984   24.5910  -33.8341   24.5930
  3.910  -32.9134   25.5302  -33.6390   22.7201  -33.4911   22.7628  -30.4979   23.2950  -33.0197   24.9646  -33.0541   24.9686
  3.920  -32.1045   25.9650  -32.7661   23.0242  -32.6136   23.0717  -29.5317   23.6471  -32.2620   25.3688  -32.2955   25.3749
  3.930  -31.3190   26.4319  -31.9041   23.3627  -31.7469   23.4155  -28.5711   24.0392  -31.5264   25.8044  -31.5589   25.8127
  3.940  -30.5575   26.9316  -31.0537   23.7382  -30.8918   23.7969  -27.6166   24.4741  -30.8135   26.2727  -30.8453   26.2829
  3.950  -29.8203   27.4648  -30.2160   24.1531  -30.0494   24.2183  -26.6688   24.9550  -30.1245   26.7748  -30.1556   26.7867
  3.960  -29.1078   28.0325  -29.3925   24.6105  -29.2212   24.6829  -25.7291   25.4855  -29.4606   27.3124  -29.4908   27.3257
  3.970  -28.4202   28.6365  -28.5851   25.1134  -28.4091   25.1938  -24.7990   26.0694  -28.8234   27.8874  -28.8523   27.9017
  3.980  -27.7581   29.2789  -27.7963   25.6651  -27.6159   25.7544  -23.8805   26.7111  -28.2147   28.5020  -28.2416   28.5171
  3.990  -27.1222   29.9627  -27.0295   26.2692  -26.8447   26.3683  -22.9764   27.4149  -27.6371   29.1588  -27.6609   29.1748
  4.000  -26.5141   30.6919  -26.2885   26.9293  -26.0998   27.0393  -22.0901   28.1861  -27.0937   29.8607  -27.1134   29.8779
  4.010  -25.9362   31.4710  -25.5785   27.6490  -25.3864   27.7711  -21.2259   29.0296  -26.5889   30.6110  -26.6030   30.6302
  4.020  -25.3923   32.3054  -24.9054   28.4319  -24.7105   28.5674  -20.3891   29.9513  -26.1280   31.4128  -26.1353   31.4355
  4.030  -24.8881   33.2006  -24.2766   29.2813  -24.0799   29.4314  -19.5864   30.9567  -25.7179   32.2695  -25.7174   32.2978
  4.040  -24.4311   34.1627  -23.7007   30.1999  -23.5032   30.3660  -18.8257   32.0518  -25.3671   33.1837  -25.3584   33.2202
  4.050  -24.0313   35.1971  -23.1876   31.1895  -22.9909   31.3730  -18.1168   33.2422  -25.0862   34.1573  -25.0695   34.2050
  4.060  -23.7014   36.3080  -22.7489   32.2508  -22.5548   32.4531  -17.4714   34.5336  -24.8874   35.1906  -24.8640   35.2527
  4.070  -23.4566   37.4985  -22.3977   33.3831  -22.2084   33.6054  -16.9033   35.9306  -24.7849   36.2820  -24.7571   36.3616
  4.080  -23.3147   38.7685  -22.1481   34.5832  -21.9664   34.8266  -16.4290   37.4370  -24.7949   37.4269  -24.7659   37.5265
  4.090  -23.2960   40.1150  -22.0156   35.8456  -21.8447   36.1107  -16.0675   39.0549  -24.9343   38.6171  -24.9084   38.7385
  4.100  -23.4223   41.5305  -22.0162   37.1615  -21.8596   37.4485  -15.8408   40.7837  -25.2211   39.8399  -25.2028   39.9837
  4.110  -23.7167   43.0024  -22.1659   38.5184  -22.0277   38.8269  -15.7738   42.6197  -25.6721   41.0777  -25.6664   41.2431
  4.120  -24.2019   44.5118  -22.4800   39.9000  -22.3644   40.2288  -15.8939   44.5545  -26.3024   42.3070  -26.3141   42.4920
  4.130  -24.8990   46.0336  -22.9720   41.2857  -22.8835   41.6327  -16.2307   46.5740  -27.1233   43.4991  -27.1564   43.7003
  4.140  -25.8255   47.5356  -23.6525   42.6508  -23.5953   43.0127  -16.8152   48.6568  -28.1401   44.6202  -28.1976   44.8333
  4.150  -26.9933   48.9794  -24.5280   43.9669  -24.5061   44.3394  -17.6774   50.7730  -29.3507   45.6328  -29.4343   45.8531
  4.160  -28.4065   50.3210  -25.6000   45.2025  -25.6166   45.5801  -18.8449   52.8830  -30.7436   46.4982  -30.8537   46.7205
  4.170  -30.0590   51.5130  -26.8635   46.3244  -26.9206   46.7007  -20.3396   54.9372  -32.2972   47.1786  -32.4330   47.3983
  4.180  -31.9338   52.5071  -28.3068   47.2986  -28.4052   47.6665  -22.1740   56.8763  -33.9801   47.6409  -34.1396   47.8540
  4.190  -34.0014   53.2573  -29.9105   48.0925  -30.0492   48.4445  -24.3474   58.6329  -35.7521   47.8597  -35.9329   48.0629
  4.200  -36.2209   53.7237  -31.6478   48.6762  -31.8242   49.0051  -26.8426   60.1354  -37.5670   47.8197  -37.7660   48.0106
  4.210  -38.5412   53.8754  -33.4852   49.0252  -33.6948   49.3243  -29.6230   61.3126  -39.3758   47.5175  -39.5901   47.6946
  4.220  -40.9039   53.6941  -35.3828   49.1216  -35.6197   49.3854  -32.6318   62.1001  -41.1307   46.9618  -41.3572   47.1242
  4.230  -43.2470   53.1755  -37.2971   48.9564  -37.5542   49.1810  -35.7943   62.4474  -42.7882   46.1722  -43.0241   46.3196
  4.240  -45.5087   52.3301  -39.1824   48.5305  -39.4523   48.7138  -39.0220   62.3238  -44.3123   45.1771  -44.5551   45.3096
  4.250  -47.6324   51.1826  -40.9945   47.8549  -41.2693   47.9967  -42.2194   61.7226  -45.6761   44.0106  -45.9233   44.1288
  4.260  -49.5695   49.7696  -42.6929   46.9506  -42.9655   47.0524  -45.2926   60.6624  -46.8622   42.7097  -47.1118   42.8145
  4.270  -51.2830   48.1362  -44.2436   45.8464  -44.5078   45.9111  -48.1571   59.1851  -47.8624   41.3112  -48.1126   41.4040
  4.280  -52.7480   46.3330  -45.6213   44.5770  -45.8719   44.6086  -50.7443   57.3511  -48.6764   39.8501  -48.9259   39.9320
  4.290  -53.9529   44.4112  -46.8097   43.1799  -47.0430   43.1830  -53.0057   55.2326  -49.3105   38.3572  -49.5583   38.4297
  4.300  -54.8974   42.4201  -47.8018   41.6930  -48.0153   41.6724  -54.9139   52.9064  -49.7754   36.8590  -50.0208   36.9236
  4.310  -55.5910   40.4041  -48.5986   40.1520  -48.7910   40.1122  -56.4612   50.4476  -50.0849   35.3771  -50.3276   35.4352
  4.320  -56.0507   38.4010  -49.2078   38.5885  -49.3788   38.5340  -57.6566   47.9244  -50.2545   33.9283  -50.4944   33.9811
  4.330  -56.2980   36.4414  -49.6421   37.0295  -49.7920   36.9642  -58.5213   45.3956  -50.3003   32.5251  -50.5375   32.5739
  4.340  -56.3573   34.5485  -49.9170   35.4967  -50.0468   35.4238  -59.0850   42.9084  -50.2380   31.1765  -50.4728   31.2222
  4.350  -56.2537   32.7391  -50.0498   34.0067  -50.1607   33.9289  -59.3818   40.4990  -50.0825   29.8882  -50.3152   29.9317
  4.360  -56.0115   31.0238  -50.0580   32.5716  -50.1516   32.4909  -59.4475   38.1933  -49.8476   28.6635  -50.0787   28.7054
  4.370  -55.6536   29.4087  -49.9587   31.1993  -50.0365   31.1176  -59.3169   36.0082  -49.5458   27.5037  -49.7758   27.5447
  4.380  -55.2008   27.8960  -49.7679   29.8948  -49.8315   29.8131  -59.0225   33.9532  -49.1882   26.4087  -49.4175   26.4491
  4.390  -54.6715   26.4852  -49.5002   28.6602  -49.5509   28.5796  -58.5941   32.0325  -48.7844   25.3773  -49.0135   25.4174
  4.400  -54.0816   25.1736  -49.1684   27.4959  -49.2077   27.4170  -58.0577   30.2456  -48.3430   24.4073  -48.5724   24.4475
  4.410  -53.4449   23.9572  -48.7841   26.4008  -48.8130   26.3239  -57.4359   28.5892  -47.8713   23.4965  -48.1013   23.5368
  4.420  -52.7728   22.8309  -48.3569   25.3729  -48.3766   25.2981  -56.7479   27.0580  -47.3754   22.6418  -47.6065   22.6825
  4.430  -52.0751   21.7894  -47.8954   24.4092  -47.9069   24.3368  -56.0101   25.6453  -46.8606   21.8405  -47.0932   21.8815
  4.440  -51.3597   20.8270  -47.4067   23.5068  -47.4108   23.4367  -55.2357   24.3436  -46.3316   21.0894  -46.5659   21.1309
  4.450  -50.6332   19.9382  -46.8970   22.6621  -46.8943   22.5942  -54.4359   23.1454  -45.7920   20.3855  -46.0283   20.4275
  4.460  -49.9009   19.1173  -46.3712   21.8719  -46.3623   21.8060  -53.6197   22.0428  -45.2450   19.7260  -45.4837   19.7684
  4.470  -49.1671   18.3593  -45.8337   21.1325  -45.8192   21.0686  -52.7944   21.0286  -44.6932   19.1079  -44.9346   19.1508
  4.480  -48.4353   17.6590  -45.2879   20.4408  -45.2682   20.3787  -51.9660   20.0955  -44.1390   18.5286  -44.3832   18.5720
  4.490  -47.7081   17.0120  -44.7369   19.7936  -44.7123   19.7331  -51.1389   19.2369  -43.5841   17.9856  -43.8314   18.0295
  4.500  -46.9877   16.4139  -44.1830   19.1878  -44.1538   19.1287  -50.3169   18.4465  -43.0299   17.4765  -43.2806   17.5208
  4.510  -46.2757   15.8608  -43.6283   18.6207  -43.5946   18.5628  -49.5029   17.7187  -42.4779   16.9991  -42.7321   17.0439
  4.520  -45.5734   15.3491  -43.0744   18.0896  -43.0364   18.0327  -48.6990   17.0480  -41.9289   16.5514  -42.1869   16.5965
  4.530  -44.8817   14.8754  -42.5225   17.5921  -42.4804   17.5361  -47.9068   16.4298  -41.3839   16.1313  -41.6458   16.1768
  4.540  -44.2012   14.4369  -41.9738   17.1258  -41.9277   17.0705  -47.1277   15.8596  -40.8434   15.7372  -41.1095   15.7830
  4.550  -43.5325   14.0306  -41.4292   16.6888  -41.3791   16.6341  -46.3623   15.3334  -40.3079   15.3674  -40.5785   15.4136
  4.560  -42.8756   13.6542  -40.8893   16.2791  -40.8353   16.2248  -45.6113   14.8477  -39.7780   15.0205  -40.0532   15.0669
  4.570  -42.2309   13.3054  -40.3548   15.8948  -40.2968   15.8409  -44.8750   14.3990  -39.2539   14.6949  -39.5339   14.7416
  4.580  -41.5984   12.9821  -39.8259   15.5345  -39.7639   15.4807  -44.1536   13.9845  -38.7358   14.3895  -39.0209   14.4365
  4.590  -40.9779   12.6824  -39.3031   15.1965  -39.2371   15.1429  -43.4471   13.6015  -38.2240   14.1031  -38.5143   14.1503
  4.600  -40.3694   12.4048  -38.7865   14.8796  -38.7164   14.8260  -42.7554   13.2475  -37.7184   13.8346  -38.0143   13.8819
  4.610  -39.7727   12.1475  -38.2764   14.5825  -38.2022   14.5288  -42.0782   12.9204  -37.2193   13.5830  -37.5209   13.6304
  4.620  -39.1876   11.9094  -37.7729   14.3039  -37.6944   14.2501  -41.4155   12.6181  -36.7266   13.3474  -37.0342   13.3949
  4.630  -38.6138   11.6890  -37.2760   14.0430  -37.1932   13.9889  -40.7668   12.3390  -36.2403   13.1269  -36.5542   13.1745
  4.640  -38.0511   11.4853  -36.7857   13.7986  -36.6985   13.7443  -40.1319   12.0813  -35.7605   12.9208  -36.0809   12.9684
  4.650  -37.4992   11.2972  -36.3022   13.5699  -36.2104   13.5153  -39.5103   11.8436  -35.2870   12.7284  -35.6142   12.7759
  4.660  -36.9578   11.1238  -35.8253   13.3561  -35.7288   13.3012  -38.9018   11.6245  -34.8197   12.5491  -35.1541   12.5964
  4.670  -36.4267   10.9642  -35.3550   13.1564  -35.2536   13.1011  -38.3058   11.4230  -34.3588   12.3822  -34.7006   12.4293
  4.680  -35.9056   10.8177  -34.8912   12.9702  -34.7848   12.9145  -37.7222   11.2378  -33.9039   12.2271  -34.2535   12.2741
  4.690  -35.3941   10.6835  -34.4340   12.7968  -34.3223   12.7407  -37.1504   11.0681  -33.4552   12.0835  -33.8128   12.1301
  4.700  -34.8920   10.5610  -33.9831   12.6356  -33.8661   12.5792  -36.5901   10.9129  -33.0124   11.9509  -33.3785   11.9970
  4.710  -34.3991   10.4496  -33.5385   12.4862  -33.4159   12.4294  -36.0409   10.7714  -32.5754   11.8287  -32.9503   11.8743
  4.720  -33.9150   10.3489  -33.1002   12.3479  -32.9718   12.2908  -35.5025   10.6429  -32.1442   11.7168  -32.5283   11.7617
  4.730  -33.4396   10.2583  -32.6679   12.2205  -32.5336   12.1631  -34.9745   10.5268  -31.7187   11.6146  -32.1124   11.6587
  4.740  -32.9725   10.1774  -32.2417   12.1035  -32.1011   12.0457  -34.4566   10.4223  -31.2987   11.5219  -31.7025   11.5651
  4.750  -32.5135   10.1057  -31.8215   11.9965  -31.6744   11.9385  -33.9485   10.3291  -30.8842   11.4385  -31.2985   11.4806
  4.760  -32.0625   10.0430  -31.4071   11.8992  -31.2532   11.8409  -33.4497   10.2467  -30.4750   11.3639  -30.9003   11.4048
  4.770  -31.6191    9.9890  -30.9984   11.8112  -30.8375   11.7528  -32.9601   10.1745  -30.0711   11.2982  -30.5079   11.3376
  4.780  -31.1832    9.9432  -30.5954   11.7323  -30.4272   11.6738  -32.4794   10.1122  -29.6724   11.2409  -30.1212   11.2786
  4.790  -30.7546    9.9055  -30.1981   11.6622  -30.0222   11.6037  -32.0073   10.0594  -29.2788   11.1920  -29.7402   11.2278
  4.800  -30.3331    9.8757  -29.8062   11.6007  -29.6224   11.5424  -31.5434   10.0159  -28.8902   11.1512  -29.3648   11.1848
  4.810  -29.9186    9.8534  -29.4197   11.5476  -29.2276   11.4895  -31.0877    9.9813  -28.5066   11.1185  -28.9949   11.1496
  4.820  -29.5108    9.8385  -29.0386   11.5027  -28.8378   11.4449  -30.6398    9.9554  -28.1278   11.0936  -28.6306   11.1219
  4.830  -29.1097    9.8309  -28.6629   11.4658  -28.4530   11.4085  -30.1996    9.9380  -27.7538   11.0766  -28.2718   11.1016
  4.840  -28.7150    9.8304  -28.2923   11.4368  -28.0730   11.3801  -29.7668    9.9289  -27.3845   11.0673  -27.9184   11.0886
  4.850  -28.3266    9.8368  -27.9269   11.4154  -27.6977   11.3595  -29.3413    9.9278  -27.0200   11.0656  -27.5705   11.0828
  4.860  -27.9445    9.8500  -27.5667   11.4017  -27.3271   11.3468  -28.9228    9.9347  -26.6600   11.0714  -27.2280   11.0840
  4.870  -27.5685    9.8699  -27.2116   11.3954  -26.9611   11.3418  -28.5113    9.9495  -26.3047   11.0848  -26.8911   11.0922
  4.880  -27.1984    9.8965  -26.8615   11.3965  -26.5997   11.3445  -28.1065    9.9720  -25.9540   11.1058  -26.5595   11.1073
  4.890  -26.8343    9.9296  -26.5164   11.4049  -26.2427   11.3547  -27.7083   10.0021  -25.6077   11.1342  -26.2335   11.1291
  4.900  -26.4759    9.9691  -26.1764   11.4205  -25.8901   11.3725  -27.3166   10.0399  -25.2660   11.1701  -25.9130   11.1575
  4.910  -26.1232   10.0150  -25.8412   11.4432  -25.5419   11.3978  -26.9313   10.0852  -24.9288   11.2135  -25.5980   11.1926
  4.920  -25.7761   10.0674  -25.5111   11.4731  -25.1980   11.4307  -26.5523   10.1380  -24.5961   11.2645  -25.2886   11.2343
  4.930  -25.4345   10.1260  -25.1858   11.5100  -24.8584   11.4712  -26.1794   10.1983  -24.2678   11.3232  -24.9848   11.2823
  4.940  -25.0984   10.1910  -24.8654   11.5540  -24.5229   11.5193  -25.8126   10.2662  -23.9441   11.3895  -24.6867   11.3368
  4.950  -24.7675   10.2623  -24.5500   11.6051  -24.1916   11.5750  -25.4518   10.3416  -23.6248   11.4636  -24.3944   11.3977
  4.960  -24.4419   10.3400  -24.2394   11.6632  -23.8644   11.6385  -25.0969   10.4247  -23.3101   11.5456  -24.1079   11.4648
  4.970  -24.1215   10.4241  -23.9337   11.7284  -23.5413   11.7099  -24.7478   10.5155  -23.0000   11.6357  -23.8273   11.5381
  4.980  -23.8062   10.5146  -23.6328   11.8008  -23.2223   11.7893  -24.4046   10.6142  -22.6945   11.7340  -23.5526   11.6175
  4.990  -23.4959   10.6117  -23.3368   11.8804  -22.9072   11.8769  -24.0672   10.7209  -22.3936   11.8407  -23.2840   11.7031
  5.000  -23.1905   10.7155  -23.0458   11.9672  -22.5962   11.9729  -23.7356   10.8357  -22.0976   11.9560  -23.0215   11.7947
  5.010  -22.8900   10.8262  -22.7596   12.0615  -22.2892   12.0775  -23.4097   10.9590  -21.8064   12.0802  -22.7652   11.8923
  5.020  -22.5942   10.9439  -22.4783   12.1634  -21.9862   12.1912  -23.0896   11.0909  -21.5202   12.2136  -22.5151   11.9958
  5.030  -22.3031   11.0689  -22.2019   12.2731  -21.6873   12.3141  -22.7754   11.2317  -21.2393   12.3565  -22.2714   12.1053
  5.040  -22.0168   11.2015  -21.9306   12.3908  -21.3925   12.4468  -22.4671   11.3819  -20.9637   12.5093  -22.0342   12.2206
  5.050  -21.7350   11.3422  -21.6644   12.5168  -21.1020   12.5897  -22.1650   11.5418  -20.6938   12.6725  -21.8035   12.3417
  5.060  -21.4580   11.4914  -21.4035   12.6514  -20.8159   12.7434  -21.8691   11.7120  -20.4300   12.8465  -21.5793   12.4688
  5.070  -21.1858   11.6496  -21.1479   12.7952  -20.5345   12.9084  -21.5798   11.8929  -20.1726   13.0319  -21.3619   12.6016
  5.080  -20.9184   11.8174  -20.8980   12.9484  -20.2581   13.0855  -21.2975   12.0851  -19.9222   13.2292  -21.1513   12.7404
  5.090  -20.6563   11.9957  -20.6541   13.1118  -19.9872   13.2754  -21.0226   12.2894  -19.6795   13.4392  -20.9475   12.8852
  5.100  -20.3998   12.1851  -20.4167   13.2857  -19.7223   13.4789  -20.7559   12.5064  -19.4453   13.6623  -20.7508   13.0360
  5.110  -20.1495   12.3867  -20.1863   13.4709  -19.4642   13.6969  -20.4982   12.7370  -19.2206   13.8993  -20.5612   13.1930
  5.120  -19.9062   12.6013  -19.9637   13.6680  -19.2138   13.9304  -20.2505   12.9818  -19.0066   14.1509  -20.3790   13.3564
  5.130  -19.6709   12.8300  -19.7498   13.8776  -18.9724   14.1803  -20.0141   13.2417  -18.8047   14.4175  -20.2043   13.5264
  5.140  -19.4451   13.0737  -19.5459   14.1005  -18.7413   14.4475  -19.7906   13.5172  -18.6167   14.6997  -20.0375   13.7032
  5.150  -19.2303   13.3333  -19.3534   14.3370  -18.5223   14.7329  -19.5820   13.8091  -18.4445   14.9978  -19.8790   13.8872
  5.160  -19.0287   13.6094  -19.1739   14.5877  -18.3174   15.0373  -19.3905   14.1175  -18.2904   15.3118  -19.7293   14.0786
  5.170  -18.8427   13.9026  -19.0095   14.8526  -18.1292   15.3612  -19.2186   14.4425  -18.1568   15.6416  -19.5889   14.2778
  5.180  -18.6751   14.2129  -18.8622   15.1316  -17.9602   15.7048  -19.0692   14.7836  -18.0464   15.9863  -19.4586   14.4851
  5.190  -18.5289   14.5397  -18.7345   15.4241  -17.8136   16.0680  -18.9452   15.1399  -17.9620   16.3450  -19.3394   14.7007
  5.200  -18.4073   14.8818  -18.6288   15.7291  -17.6926   16.4503  -18.8498   15.5097  -17.9066   16.7158  -19.2324   14.9249
  5.210  -18.3135   15.2375  -18.5475   16.0451  -17.6009   16.8504  -18.7859   15.8909  -17.8828   17.0964  -19.1388   15.1576
  5.220  -18.2503   15.6042  -18.4928   16.3700  -17.5420   17.2665  -18.7564   16.2802  -17.8933   17.4839  -19.0601   15.3987
  5.230  -18.2205   15.9785  -18.4667   16.7012  -17.5194   17.6959  -18.7637   16.6741  -17.9401   17.8748  -18.9978   15.6478
  5.240  -18.2259   16.3565  -18.4708   17.0357  -17.5365   18.1354  -18.8092   17.0683  -18.0248   18.2649  -18.9536   15.9043
  5.250  -18.2677   16.7339  -18.5059   17.3702  -17.5962   18.5808  -18.8941   17.4580  -18.1483   18.6497  -18.9291   16.1671
  5.260  -18.3461   17.1062  -18.5726   17.7013  -17.7009   19.0272  -19.0181   17.8384  -18.3107   19.0247  -18.9262   16.4348
  5.270  -18.4606   17.4687  -18.6705   18.0254  -17.8519   19.4693  -19.1804   18.2046  -18.5113   19.3850  -18.9461   16.7058
  5.280  -18.6097   17.8173  -18.7988   18.3393  -18.0500   19.9013  -19.3792   18.5520  -18.7485   19.7261  -18.9904   16.9780
  5.290  -18.7912   18.1481  -18.9564   18.6397  -18.2948   20.3171  -19.6118   18.8764  -19.0200   20.0436  -19.0600   17.2489
  5.300  -19.0026   18.4579  -19.1413   18.9239  -18.5849   20.7109  -19.8750   19.1744  -19.3228   20.3339  -19.1557   17.5161
  5.310  -19.2408   18.7442  -19.3518   19.1895  -18.9178   21.0768  -20.1652   19.4430  -19.6534   20.5937  -19.2776   17.7766
  5.320  -19.5026   19.0049  -19.5855   19.4345  -19.2900   21.4096  -20.4786   19.6801  -20.0079   20.8205  -19.4257   18.0276
  5.330  -19.7849   19.2388  -19.8402   19.6572  -19.6973   21.7046  -20.8110   19.8843  -20.3824   21.0125  -19.5992   18.2661
  5.340  -20.0845   19.4448  -20.1136   19.8564  -20.1350   21.9582  -21.1588   20.0548  -20.7727   21.1685  -19.7972   18.4895
  5.350  -20.3987   19.6227  -20.4033   20.0308  -20.5975   22.1672  -21.5180   20.1914  -21.1748   21.2879  -20.0182   18.6950
  5.360  -20.7246   19.7721  -20.7069   20.1799  -21.0793   22.3298  -21.8853   20.2942  -21.5847   21.3708  -20.2603   18.8804
  5.370  -21.0598   19.8932  -21.0223   20.3029  -21.5747   22.4447  -22.2575   20.3640  -21.9988   21.4174  -20.5214   19.0434
  5.380  -21.4021   19.9862  -21.3473   20.3996  -22.0780   22.5118  -22.6315   20.4016  -22.4137   21.4287  -20.7990   19.1823
  5.390  -21.7492   20.0515  -21.6795   20.4698  -22.5839   22.5315  -23.0050   20.4080  -22.8263   21.4059  -21.0906   19.2958
  5.400  -22.0992   20.0895  -22.0170   20.5134  -23.0873   22.5052  -23.3754   20.3845  -23.2338   21.3503  -21.3935   19.3828
  5.410  -22.4503   20.1007  -22.3576   20.5306  -23.5835   22.4347  -23.7408   20.3325  -23.6337   21.2635  -21.7049   19.4428
  5.420  -22.8006   20.0857  -22.6994   20.5218  -24.0685   22.3223  -24.0992   20.2532  -24.0237   21.1473  -22.0221   19.4754
  5.430  -23.1486   20.0452  -23.0404   20.4872  -24.5385   22.1707  -24.4492   20.1482  -24.4020   21.0034  -22.3425   19.4807
  5.440  -23.4926   19.9798  -23.3788   20.4275  -24.9905   21.9829  -24.7892   20.0189  -24.7668   20.8338  -22.6635   19.4591
  5.450  -23.8311   19.8903  -23.7127   20.3434  -25.4218   21.7622  -25.1179   19.8668  -25.1168   20.6404  -22.9826   19.4112
  5.460  -24.1626   19.7776  -24.0406   20.2358  -25.8305   21.5116  -25.4342   19.6933  -25.4507   20.4250  -23.2978   19.3380
  5.470  -24.4857   19.6426  -24.3609   20.1055  -26.2149   21.2346  -25.7372   19.5000  -25.7676   20.1898  -23.6068   19.2404
  5.480  -24.7991   19.4863  -24.6720   19.9537  -26.5738   20.9344  -26.0259   19.2882  -26.0667   19.9365  -23.9078   19.1197
  5.490  -25.1015   19.3099  -24.9727   19.7816  -26.9065   20.6142  -26.2996   19.0595  -26.3473   19.6671  -24.1993   18.9774
  5.500  -25.3918   19.1144  -25.2617   19.5902  -27.2126   20.2770  -26.5577   18.8154  -26.6092   19.3833  -24.4798   18.8149
  5.510  -25.6689   18.9012  -25.5380   19.3811  -27.4921   19.9258  -26.7996   18.5573  -26.8519   19.0870  -24.7482   18.6337
  5.520  -25.9319   18.6716  -25.8006   19.1554  -27.7451   19.5631  -27.0250   18.2867  -27.0754   18.7799  -25.0033   18.4355
  5.530  -26.1801   18.4269  -26.0488   18.9147  -27.9722   19.1916  -27.2335   18.0049  -27.2796   18.4636  -25.2444   18.2218
  5.540  -26.4128   18.1685  -26.2819   18.6604  -28.1739   18.8135  -27.4251   17.7135  -27.4647   18.1396  -25.4710   17.9943
  5.550  -26.6294   17.8979  -26.4994   18.3938  -28.3510   18.4309  -27.5994   17.4138  -27.6309   17.8095  -25.6825   17.7543
  5.560  -26.8296   17.6165  -26.7009   18.1164  -28.5045   18.0458  -27.7567   17.1070  -27.7785   17.4747  -25.8787   17.5036
  5.570  -27.0130   17.3256  -26.8861   17.8296  -28.6354   17.6597  -27.8970   16.7946  -27.9079   17.1364  -26.0594   17.2435
  5.580  -27.1795   17.0268  -27.0551   17.5348  -28.7448   17.2742  -28.0205   16.4778  -28.0196   16.7960  -26.2245   16.9753
  5.590  -27.3292   16.7214  -27.2077   17.2333  -28.8337   16.8906  -28.1275   16.1577  -28.1141   16.4545  -26.3743   16.7005
  5.600  -27.4620   16.4106  -27.3440   16.9263  -28.9033   16.5100  -28.2183   15.8354  -28.1920   16.1129  -26.5087   16.4201
  5.610  -27.5783   16.0958  -27.4643   16.6152  -28.9548   16.1334  -28.2933   15.5120  -28.2540   15.7723  -26.6282   16.1355
  5.620  -27.6782   15.7781  -27.5688   16.3009  -28.9893   15.7615  -28.3530   15.1885  -28.3006   15.4334  -26.7329   15.8476
  5.630  -27.7622   15.4587  -27.6579   15.9846  -29.0078   15.3951  -28.3981   14.8658  -28.3326   15.0972  -26.8233   15.5574
  5.640  -27.8307   15.1387  -27.7320   15.6673  -29.0114   15.0347  -28.4289   14.5447  -28.3507   14.7642  -26.8998   15.2659
  5.650  -27.8841   14.8189  -27.7914   15.3499  -29.0012   14.6809  -28.4461   14.2259  -28.3556   14.4350  -26.9628   14.9738
  5.660  -27.9231   14.5003  -27.8369   15.0332  -28.9782   14.3339  -28.4504   13.9102  -28.3480   14.1103  -27.0129   14.6820
  5.670  -27.9483   14.1837  -27.8688   14.7181  -28.9432   13.9940  -28.4423   13.5981  -28.3286   13.7905  -27.0504   14.3911
  5.680  -27.9602   13.8698  -27.8877   14.4052  -28.8971   13.6615  -28.4226   13.2901  -28.2981   13.4761  -27.0760   14.1018
  5.690  -27.9596   13.5593  -27.8943   14.0952  -28.8408   13.3365  -28.3919   12.9868  -28.2572   13.1672  -27.0902   13.8146
  5.700  -27.9469   13.2528  -27.8891   13.7886  -28.7752   13.0192  -28.3508   12.6886  -28.2066   12.8643  -27.0934   13.5300
  5.710  -27.9231   12.9506  -27.8728   13.4859  -28.7008   12.7095  -28.3000   12.3957  -28.1469   12.5675  -27.0862   13.2485
  5.720  -27.8886   12.6534  -27.8459   13.1876  -28.6185   12.4076  -28.2401   12.1085  -28.0787   12.2771  -27.0692   12.9704
  5.730  -27.8441   12.3613  -27.8091   12.8940  -28.5288   12.1133  -28.1717   11.8272  -28.0028   11.9932  -27.0428   12.6962
  5.740  -27.7904   12.0748  -27.7629   12.6055  -28.4324   11.8268  -28.0955   11.5519  -27.9196   11.7158  -27.0077   12.4261
  5.750  -27.7280   11.7941  -27.7080   12.3223  -28.3299   11.5478  -28.0120   11.2829  -27.8297   11.4452  -26.9642   12.1604
  5.760  -27.6575   11.5194  -27.6449   12.0446  -28.2217   11.2763  -27.9218   11.0202  -27.7337   11.1811  -26.9129   11.8994
  5.770  -27.5795   11.2508  -27.5741   11.7727  -28.1085   11.0122  -27.8254   10.7638  -27.6320   10.9238  -26.8543   11.6431
  5.780  -27.4946   10.9885  -27.4963   11.5067  -27.9906   10.7555  -27.7233   10.5139  -27.5252   10.6731  -26.7889   11.3918
  5.790  -27.4034   10.7325  -27.4119   11.2466  -27.8686   10.5059  -27.6161   10.2704  -27.4137   10.4291  -26.7170   11.1456
  5.800  -27.3063   10.4829  -27.3214   10.9926  -27.7427   10.2634  -27.5041   10.0332  -27.2979   10.1916  -26.6393   10.9045
  5.810  -27.2039   10.2396  -27.2253   10.7447  -27.6135   10.0278  -27.3878    9.8024  -27.1783    9.9606  -26.5559   10.6687
  5.820  -27.0966   10.0027  -27.1241   10.5029  -27.4812    9.7989  -27.2677    9.5779  -27.0552    9.7359  -26.4675   10.4383
  5.830  -26.9849    9.7722  -27.0182   10.2672  -27.3462    9.5767  -27.1441    9.3596  -26.9290    9.5176  -26.3743   10.2131
  5.840  -26.8692    9.5479  -26.9081   10.0376  -27.2087    9.3609  -27.0174    9.1474  -26.8000    9.3054  -26.2768    9.9933
  5.850  -26.7499    9.3297  -26.7940    9.8139  -27.0692    9.1514  -26.8878    8.9412  -26.6685    9.0992  -26.1753    9.7787
  5.860  -26.6273    9.1177  -26.6764    9.5963  -26.9278    8.9480  -26.7558    8.7409  -26.5349    8.8990  -26.0701    9.5695
  5.870  -26.5019    8.9117  -26.5556    9.3845  -26.7849    8.7507  -26.6217    8.5463  -26.3993    8.7045  -25.9616    9.3655
  5.880  -26.3738    8.7115  -26.4320    9.1785  -26.6405    8.5591  -26.4856    8.3574  -26.2622    8.5157  -25.8501    9.1667
  5.890  -26.2435    8.5171  -26.3058    8.9782  -26.4951    8.3732  -26.3479    8.1739  -26.1236    8.3323  -25.7358    8.9730
  5.900  -26.1112    8.3284  -26.1774    8.7835  -26.3486    8.1928  -26.2088    7.9958  -25.9838    8.1543  -25.6190    8.7844
  5.910  -25.9772    8.1451  -26.0470    8.5943  -26.2015    8.0177  -26.0686    7.8230  -25.8430    7.9815  -25.5001    8.6008
  5.920  -25.8417    7.9672  -25.9148    8.4104  -26.0537    7.8478  -25.9273    7.6552  -25.7014    7.8137  -25.3791    8.4220
  5.930  -25.7049    7.7945  -25.7812    8.2317  -25.9055    7.6829  -25.7853    7.4923  -25.5592    7.6509  -25.2564    8.2480
  5.940  -25.5671    7.6269  -25.6462    8.0581  -25.7570    7.5229  -25.6426    7.3343  -25.4165    7.4928  -25.1322    8.0788
  5.950  -25.4284    7.4643  -25.5102    7.8895  -25.6084    7.3677  -25.4995    7.1809  -25.2735    7.3393  -25.0066    7.9141
  5.960  -25.2891    7.3064  -25.3733    7.7258  -25.4598    7.2169  -25.3561    7.0320  -25.1303    7.1903  -24.8799    7.7539
  5.970  -25.1492    7.1532  -25.2357    7.5667  -25.3113    7.0707  -25.2125    6.8874  -24.9870    7.0457  -24.7523    7.5980
  5.980  -25.0089    7.0045  -25.0975    7.4122  -25.1629    6.9287  -25.0689    6.7471  -24.8438    6.9052  -24.6237    7.4465
  5.990  -24.8684    6.8602  -24.9589    7.2622  -25.0149    6.7908  -24.9253    6.6109  -24.7008    6.7689  -24.4946    7.2991
  6.000  -24.7278    6.7201  -24.8200    7.1165  -24.8672    6.6570  -24.7819    6.4787  -24.5580    6.6364  -24.3649    7.1557
  6.010  -24.5873    6.5842  -24.6810    6.9749  -24.7201    6.5270  -24.6388    6.3503  -24.4155    6.5078  -24.2348    7.0163
  6.020  -24.4468    6.4522  -24.5419    6.8374  -24.5734    6.4008  -24.4960    6.2257  -24.2735    6.3829  -24.1044    6.8807
  6.030  -24.3065    6.3240  -24.4029    6.7039  -24.4274    6.2782  -24.3536    6.1046  -24.1319    6.2615  -23.9739    6.7489
  6.040  -24.1666    6.1996  -24.2641    6.5741  -24.2820    6.1592  -24.2118    5.9870  -23.9909    6.1436  -23.8432    6.6206
  6.050  -24.0270    6.0788  -24.1255    6.4480  -24.1374    6.0435  -24.0705    5.8727  -23.8505    6.0290  -23.7127    6.4959
  6.060  -23.8879    5.9614  -23.9873    6.3256  -23.9935    5.9311  -23.9299    5.7617  -23.7108    5.9176  -23.5822    6.3746
  6.070  -23.7494    5.8474  -23.8495    6.2065  -23.8505    5.8219  -23.7899    5.6539  -23.5718    5.8094  -23.4519    6.2565
  6.080  -23.6114    5.7367  -23.7122    6.0908  -23.7083    5.7157  -23.6506    5.5490  -23.4336    5.7041  -23.3219    6.1417
  6.090  -23.4740    5.6291  -23.5754    5.9784  -23.5670    5.6125  -23.5121    5.4472  -23.2961    5.6018  -23.1922    6.0300
  6.100  -23.3374    5.5246  -23.4392    5.8690  -23.4266    5.5122  -23.3744    5.3481  -23.1595    5.5023  -23.0629    5.9213
  6.110  -23.2014    5.4230  -23.3037    5.7627  -23.2871    5.4146  -23.2376    5.2518  -23.0238    5.4055  -22.9341    5.8155
  6.120  -23.0663    5.3242  -23.1689    5.6593  -23.1487    5.3197  -23.1016    5.1581  -22.8889    5.3113  -22.8058    5.7126
  6.130  -22.9319    5.2281  -23.0348    5.5588  -23.0113    5.2273  -22.9666    5.0670  -22.7550    5.2197  -22.6780    5.6123
  6.140  -22.7984    5.1347  -22.9014    5.4610  -22.8748    5.1375  -22.8324    4.9783  -22.6220    5.1305  -22.5508    5.5148
  6.150  -22.6657    5.0439  -22.7689    5.3658  -22.7394    5.0501  -22.6992    4.8921  -22.4900    5.0437  -22.4242    5.4198
  6.160  -22.5340    4.9555  -22.6372    5.2732  -22.6051    4.9650  -22.5669    4.8081  -22.3589    4.9592  -22.2983    5.3273
  6.170  -22.4031    4.8695  -22.5063    5.1831  -22.4718    4.8821  -22.4357    4.7264  -22.2289    4.8769  -22.1731    5.2372
  6.180  -22.2732    4.7859  -22.3764    5.0954  -22.3395    4.8014  -22.3054    4.6468  -22.0998    4.7967  -22.0486    5.1494
  6.190  -22.1442    4.7044  -22.2473    5.0099  -22.2084    4.7229  -22.1761    4.5693  -21.9717    4.7186  -21.9249    5.0639
  6.200  -22.0162    4.6251  -22.1192    4.9268  -22.0783    4.6463  -22.0478    4.4939  -21.8447    4.6426  -21.8019    4.9806
  6.210  -21.8892    4.5479  -21.9920    4.8457  -21.9493    4.5718  -21.9205    4.4203  -21.7186    4.5684  -21.6798    4.8994
  6.220  -21.7631    4.4727  -21.8657    4.7668  -21.8214    4.4991  -21.7942    4.3487  -21.5936    4.4962  -21.5584    4.8203
  6.230  -21.6380    4.3995  -21.7404    4.6899  -21.6946    4.4283  -21.6690    4.2789  -21.4696    4.4257  -21.4378    4.7432
  6.240  -21.5139    4.3281  -21.6161    4.6150  -21.5689    4.3592  -21.5448    4.2108  -21.3467    4.3570  -21.3181    4.6679
  6.250  -21.3908    4.2586  -21.4927    4.5419  -21.4442    4.2919  -21.4216    4.1445  -21.2247    4.2900  -21.1992    4.5946
  6.260  -21.2687    4.1908  -21.3703    4.4707  -21.3207    4.2262  -21.2995    4.0798  -21.1038    4.2247  -21.0812    4.5230
  6.270  -21.1476    4.1247  -21.2489    4.4013  -21.1982    4.1622  -21.1783    4.0167  -20.9839    4.1609  -20.9641    4.4532
  6.280  -21.0276    4.0603  -21.1284    4.3335  -21.0768    4.0997  -21.0582    3.9551  -20.8651    4.0987  -20.8478    4.3851
  6.290  -20.9085    3.9975  -21.0090    4.2675  -20.9564    4.0387  -20.9392    3.8951  -20.7472    4.0380  -20.7324    4.3187
  6.300  -20.7904    3.9362  -20.8905    4.2030  -20.8372    3.9792  -20.8211    3.8365  -20.6304    3.9787  -20.6178    4.2538
  6.310  -20.6733    3.8764  -20.7730    4.1401  -20.7189    3.9211  -20.7040    3.7793  -20.5146    3.9208  -20.5042    4.1905
  6.320  -20.5572    3.8181  -20.6565    4.0787  -20.6018    3.8643  -20.5880    3.7234  -20.3998    3.8643  -20.3914    4.1286
  6.330  -20.4421    3.7611  -20.5410    4.0188  -20.4857    3.8089  -20.4729    3.6689  -20.2860    3.8091  -20.2795    4.0683
  6.340  -20.3280    3.7055  -20.4265    3.9603  -20.3706    3.7548  -20.3589    3.6157  -20.1732    3.7552  -20.1685    4.0093
  6.350  -20.2149    3.6513  -20.3129    3.9032  -20.2565    3.7020  -20.2458    3.5637  -20.0613    3.7025  -20.0584    3.9517
  6.360  -20.1027    3.5983  -20.2003    3.8474  -20.1435    3.6503  -20.1338    3.5128  -19.9505    3.6510  -19.9492    3.8954
  6.370  -19.9916    3.5465  -20.0886    3.7928  -20.0315    3.5998  -20.0227    3.4632  -19.8406    3.6006  -19.8408    3.8404
  6.380  -19.8814    3.4959  -19.9779    3.7396  -19.9205    3.5505  -19.9125    3.4147  -19.7317    3.5514  -19.7334    3.7866
  6.390  -19.7721    3.4465  -19.8682    3.6875  -19.8105    3.5022  -19.8034    3.3672  -19.6237    3.5033  -19.6268    3.7340
  6.400  -19.6638    3.3982  -19.7594    3.6366  -19.7015    3.4550  -19.6952    3.3209  -19.5167    3.4562  -19.5210    3.6827
  6.410  -19.5564    3.3510  -19.6516    3.5869  -19.5934    3.4089  -19.5879    3.2755  -19.4106    3.4102  -19.4161    3.6324
  6.420  -19.4500    3.3049  -19.5446    3.5382  -19.4863    3.3638  -19.4816    3.2312  -19.3055    3.3651  -19.3121    3.5832
  6.430  -19.3445    3.2598  -19.4386    3.4907  -19.3802    3.3196  -19.3762    3.1878  -19.2012    3.3211  -19.2090    3.5352
  6.440  -19.2399    3.2157  -19.3336    3.4441  -19.2750    3.2764  -19.2717    3.1454  -19.0979    3.2779  -19.1067    3.4881
  6.450  -19.1362    3.1725  -19.2294    3.3986  -19.1708    3.2341  -19.1681    3.1038  -18.9955    3.2357  -19.0052    3.4421
  6.460  -19.0334    3.1303  -19.1261    3.3540  -19.0675    3.1927  -19.0654    3.0632  -18.8940    3.1944  -18.9046    3.3970
  6.470  -18.9315    3.0890  -19.0237    3.3105  -18.9651    3.1522  -18.9637    3.0234  -18.7933    3.1539  -18.8048    3.3529
  6.480  -18.8305    3.0486  -18.9222    3.2678  -18.8636    3.1125  -18.8628    2.9845  -18.6936    3.1143  -18.7058    3.3098
  6.490  -18.7304    3.0090  -18.8216    3.2260  -18.7630    3.0737  -18.7627    2.9464  -18.5947    3.0755  -18.6077    3.2675
  6.500  -18.6311    2.9703  -18.7218    3.1851  -18.6632    3.0356  -18.6636    2.9090  -18.4966    3.0374  -18.5103    3.2261
  6.510  -18.5327    2.9324  -18.6229    3.1451  -18.5644    2.9983  -18.5653    2.8725  -18.3994    3.0002  -18.4138    3.1856
  6.520  -18.4352    2.8952  -18.5249    3.1058  -18.4664    2.9618  -18.4678    2.8366  -18.3031    2.9637  -18.3181    3.1458
  6.530  -18.3384    2.8589  -18.4277    3.0674  -18.3693    2.9260  -18.3712    2.8015  -18.2075    2.9279  -18.2231    3.1069
  6.540  -18.2425    2.8232  -18.3313    3.0297  -18.2731    2.8909  -18.2754    2.7671  -18.1128    2.8928  -18.1289    3.0688
  6.550  -18.1475    2.7883  -18.2357    2.9928  -18.1776    2.8565  -18.1804    2.7334  -18.0189    2.8584  -18.0356    3.0314
  6.560  -18.0532    2.7541  -18.1410    2.9567  -18.0830    2.8227  -18.0862    2.7004  -17.9258    2.8247  -17.9429    2.9947
  6.570  -17.9597    2.7206  -18.0470    2.9212  -17.9892    2.7897  -17.9928    2.6680  -17.8335    2.7916  -17.8511    2.9588
  6.580  -17.8671    2.6877  -17.9539    2.8865  -17.8963    2.7572  -17.9003    2.6362  -17.7420    2.7592  -17.7600    2.9236
  6.590  -17.7752    2.6555  -17.8615    2.8524  -17.8041    2.7254  -17.8085    2.6051  -17.6512    2.7273  -17.6696    2.8891
  6.600  -17.6841    2.6240  -17.7700    2.8190  -17.7127    2.6942  -17.7174    2.5745  -17.5612    2.6961  -17.5800    2.8552
  6.610  -17.5937    2.5930  -17.6792    2.7862  -17.6221    2.6636  -17.6272    2.5446  -17.4720    2.6655  -17.4911    2.8220
  6.620  -17.5042    2.5626  -17.5891    2.7541  -17.5322    2.6335  -17.5377    2.5152  -17.3835    2.6354  -17.4029    2.7894
  6.630  -17.4153    2.5328  -17.4998    2.7225  -17.4431    2.6040  -17.4489    2.4863  -17.2958    2.6059  -17.3155    2.7574
  6.640  -17.3272    2.5036  -17.4113    2.6916  -17.3548    2.5751  -17.3609    2.4580  -17.2087    2.5770  -17.2287    2.7260
  6.650  -17.2399    2.4749  -17.3235    2.6612  -17.2672    2.5467  -17.2736    2.4302  -17.1224    2.5485  -17.1427    2.6952
  6.660  -17.1532    2.4468  -17.2364    2.6314  -17.1803    2.5188  -17.1870    2.4030  -17.0368    2.5206  -17.0573    2.6650
  6.670  -17.0673    2.4192  -17.1500    2.6021  -17.0942    2.4914  -17.1011    2.3762  -16.9520    2.4932  -16.9726    2.6353
  6.680  -16.9821    2.3921  -17.0643    2.5734  -17.0088    2.4644  -17.0159    2.3499  -16.8678    2.4662  -16.8886    2.6061
  6.690  -16.8976    2.3654  -16.9794    2.5452  -16.9240    2.4380  -16.9315    2.3241  -16.7843    2.4398  -16.8053    2.5775
  6.700  -16.8137    2.3393  -16.8951    2.5175  -16.8400    2.4120  -16.8477    2.2988  -16.7014    2.4138  -16.7227    2.5494
  6.710  -16.7306    2.3137  -16.8115    2.4903  -16.7567    2.3865  -16.7646    2.2739  -16.6193    2.3883  -16.6407    2.5218
  6.720  -16.6481    2.2885  -16.7286    2.4635  -16.6740    2.3615  -16.6822    2.2494  -16.5378    2.3632  -16.5593    2.4947
  6.730  -16.5663    2.2637  -16.6464    2.4373  -16.5920    2.3368  -16.6004    2.2254  -16.4569    2.3385  -16.4786    2.4680
  6.740  -16.4852    2.2394  -16.5648    2.4115  -16.5107    2.3126  -16.5193    2.2018  -16.3767    2.3143  -16.3985    2.4418
  6.750  -16.4047    2.2155  -16.4839    2.3861  -16.4301    2.2888  -16.4388    2.1786  -16.2972    2.2904  -16.3191    2.4161
  6.760  -16.3248    2.1920  -16.4037    2.3612  -16.3501    2.2654  -16.3590    2.1558  -16.2183    2.2670  -16.2402    2.3908
  6.770  -16.2456    2.1690  -16.3240    2.3367  -16.2707    2.2424  -16.2798    2.1334  -16.1400    2.2440  -16.1620    2.3660
  6.780  -16.1670    2.1463  -16.2451    2.3127  -16.1919    2.2198  -16.2012    2.1113  -16.0623    2.2213  -16.0844    2.3415
  6.790  -16.0890    2.1240  -16.1667    2.2890  -16.1138    2.1976  -16.1232    2.0897  -15.9852    2.1991  -16.0074    2.3175
  6.800  -16.0116    2.1021  -16.0889    2.2657  -16.0363    2.1757  -16.0459    2.0684  -15.9087    2.1771  -15.9310    2.2939
  6.810  -15.9349    2.0806  -16.0118    2.2429  -15.9594    2.1542  -15.9691    2.0474  -15.8329    2.1556  -15.8551    2.2707
  6.820  -15.8587    2.0594  -15.9352    2.2204  -15.8831    2.1330  -15.8930    2.0268  -15.7576    2.1344  -15.7799    2.2478
  6.830  -15.7831    2.0386  -15.8593    2.1982  -15.8075    2.1122  -15.8174    2.0066  -15.6829    2.1135  -15.7052    2.2253
  6.840  -15.7082    2.0181  -15.7839    2.1765  -15.7323    2.0917  -15.7425    1.9866  -15.6088    2.0930  -15.6311    2.2032
  6.850  -15.6338    1.9980  -15.7092    2.1550  -15.6578    2.0715  -15.6681    1.9670  -15.5352    2.0728  -15.5576    2.1815
  6.860  -15.5599    1.9782  -15.6350    2.1340  -15.5839    2.0517  -15.5942    1.9477  -15.4622    2.0529  -15.4846    2.1601
  6.870  -15.4866    1.9587  -15.5613    2.1132  -15.5105    2.0322  -15.5210    1.9287  -15.3897    2.0333  -15.4121    2.1390
  6.880  -15.4139    1.9395  -15.4883    2.0928  -15.4377    2.0129  -15.4482    1.9101  -15.3178    2.0141  -15.3402    2.1183
  6.890  -15.3418    1.9207  -15.4158    2.0727  -15.3654    1.9940  -15.3761    1.8917  -15.2465    1.9951  -15.2688    2.0979
  6.900  -15.2702    1.9021  -15.3438    2.0530  -15.2937    1.9754  -15.3044    1.8736  -15.1757    1.9764  -15.1980    2.0779
  6.910  -15.1991    1.8838  -15.2724    2.0335  -15.2225    1.9570  -15.2334    1.8558  -15.1054    1.9580  -15.1277    2.0581
  6.920  -15.1285    1.8658  -15.2015    2.0144  -15.1519    1.9389  -15.1628    1.8382  -15.0356    1.9399  -15.0579    2.0387
  6.930  -15.0585    1.8481  -15.1311    1.9955  -15.0818    1.9212  -15.0928    1.8210  -14.9664    1.9221  -14.9886    2.0195
  6.940  -14.9890    1.8307  -15.0613    1.9769  -15.0122    1.9036  -15.0232    1.8040  -14.8976    1.9045  -14.9198    2.0006
  6.950  -14.9200    1.8135  -14.9920    1.9586  -14.9431    1.8864  -14.9542    1.7872  -14.8294    1.8872  -14.8516    1.9821
  6.960  -14.8515    1.7966  -14.9232    1.9406  -14.8745    1.8693  -14.8857    1.7707  -14.7616    1.8702  -14.7838    1.9638
  6.970  -14.7836    1.7800  -14.8549    1.9229  -14.8065    1.8526  -14.8177    1.7545  -14.6944    1.8534  -14.7165    1.9458
  6.980  -14.7161    1.7636  -14.7871    1.9054  -14.7389    1.8361  -14.7502    1.7385  -14.6277    1.8368  -14.6497    1.9280
  6.990  -14.6491    1.7475  -14.7198    1.8882  -14.6718    1.8198  -14.6832    1.7227  -14.5614    1.8205  -14.5834    1.9105
  7.000  -14.5826    1.7315  -14.6530    1.8712  -14.6053    1.8038  -14.6167    1.7072  -14.4956    1.8044  -14.5175    1.8933
  7.010  -14.5166    1.7159  -14.5866    1.8545  -14.5392    1.7880  -14.5506    1.6919  -14.4303    1.7886  -14.4521    1.8763
  7.020  -14.4510    1.7004  -14.5208    1.8380  -14.4735    1.7724  -14.4850    1.6768  -14.3654    1.7730  -14.3872    1.8596
  7.030  -14.3859    1.6852  -14.4554    1.8218  -14.4084    1.7570  -14.4199    1.6619  -14.3010    1.7576  -14.3228    1.8431
  7.040  -14.3213    1.6703  -14.3905    1.8058  -14.3437    1.7419  -14.3553    1.6473  -14.2371    1.7424  -14.2588    1.8269
  7.050  -14.2571    1.6555  -14.3261    1.7900  -14.2795    1.7270  -14.2911    1.6329  -14.1736    1.7275  -14.1952    1.8109
  7.060  -14.1934    1.6409  -14.2621    1.7745  -14.2157    1.7123  -14.2273    1.6186  -14.1106    1.7127  -14.1321    1.7951
  7.070  -14.1302    1.6266  -14.1985    1.7592  -14.1524    1.6977  -14.1641    1.6046  -14.0480    1.6982  -14.0694    1.7795
  7.080  -14.0674    1.6124  -14.1355    1.7441  -14.0895    1.6834  -14.1012    1.5908  -13.9858    1.6838  -14.0072    1.7642
  7.090  -14.0050    1.5985  -14.0728    1.7292  -14.0270    1.6693  -14.0388    1.5771  -13.9241    1.6697  -13.9454    1.7490
  7.100  -13.9430    1.5848  -14.0106    1.7145  -13.9650    1.6554  -13.9768    1.5637  -13.8628    1.6557  -13.8840    1.7341
  7.110  -13.8815    1.5712  -13.9488    1.7000  -13.9035    1.6417  -13.9152    1.5505  -13.8019    1.6420  -13.8230    1.7194
  7.120  -13.8204    1.5579  -13.8875    1.6857  -13.8423    1.6281  -13.8541    1.5374  -13.7414    1.6284  -13.7625    1.7049
  7.130  -13.7598    1.5447  -13.8266    1.6716  -13.7816    1.6148  -13.7934    1.5245  -13.6814    1.6150  -13.7024    1.6906
  7.140  -13.6995    1.5317  -13.7660    1.6577  -13.7213    1.6016  -13.7331    1.5118  -13.6217    1.6018  -13.6426    1.6765
  7.150  -13.6397    1.5189  -13.7060    1.6440  -13.6614    1.5886  -13.6732    1.4992  -13.5625    1.5887  -13.5833    1.6626
  7.160  -13.5802    1.5062  -13.6463    1.6305  -13.6019    1.5758  -13.6137    1.4869  -13.5036    1.5759  -13.5244    1.6489
  7.170  -13.5212    1.4938  -13.5870    1.6171  -13.5428    1.5631  -13.5546    1.4747  -13.4452    1.5632  -13.4658    1.6353
  7.180  -13.4626    1.4815  -13.5281    1.6040  -13.4841    1.5506  -13.4960    1.4626  -13.3871    1.5507  -13.4077    1.6219
  7.190  -13.4043    1.4693  -13.4696    1.5910  -13.4258    1.5383  -13.4377    1.4507  -13.3295    1.5383  -13.3499    1.6088
  7.200  -13.3465    1.4574  -13.4115    1.5782  -13.3678    1.5261  -13.3797    1.4390  -13.2722    1.5261  -13.2926    1.5957
  7.210  -13.2890    1.4456  -13.3538    1.5655  -13.3103    1.5141  -13.3222    1.4274  -13.2153    1.5140  -13.2356    1.5829
  7.220  -13.2319    1.4339  -13.2965    1.5530  -13.2532    1.5023  -13.2651    1.4160  -13.1587    1.5022  -13.1790    1.5702
  7.230  -13.1752    1.4224  -13.2396    1.5407  -13.1964    1.4905  -13.2083    1.4048  -13.1026    1.4904  -13.1227    1.5577
  7.240  -13.1188    1.4111  -13.1830    1.5285  -13.1400    1.4790  -13.1519    1.3936  -13.0468    1.4788  -13.0668    1.5454
  7.250  -13.0628    1.3999  -13.1268    1.5165  -13.0840    1.4676  -13.0959    1.3827  -12.9914    1.4674  -13.0113    1.5332
  7.260  -13.0072    1.3888  -13.0710    1.5047  -13.0283    1.4563  -13.0402    1.3718  -12.9363    1.4561  -12.9561    1.5212
  7.270  -12.9520    1.3779  -13.0156    1.4930  -12.9730    1.4452  -12.9849    1.3611  -12.8816    1.4449  -12.9013    1.5093
  7.280  -12.8971    1.3671  -12.9605    1.4814  -12.9181    1.4342  -12.9300    1.3506  -12.8272    1.4339  -12.8469    1.4976
  7.290  -12.8425    1.3565  -12.9057    1.4700  -12.8635    1.4234  -12.8754    1.3401  -12.7732    1.4230  -12.7927    1.4860
  7.300  -12.7883    1.3460  -12.8513    1.4587  -12.8092    1.4127  -12.8211    1.3298  -12.7195    1.4123  -12.7390    1.4745
  7.310  -12.7345    1.3356  -12.7973    1.4476  -12.7553    1.4021  -12.7672    1.3197  -12.6662    1.4017  -12.6855    1.4633
  7.320  -12.6810    1.3254  -12.7436    1.4366  -12.7018    1.3916  -12.7136    1.3096  -12.6132    1.3912  -12.6325    1.4521
  7.330  -12.6278    1.3153  -12.6902    1.4258  -12.6486    1.3813  -12.6604    1.2997  -12.5605    1.3809  -12.5797    1.4411
  7.340  -12.5750    1.3053  -12.6372    1.4151  -12.5957    1.3711  -12.6075    1.2900  -12.5082    1.3706  -12.5273    1.4302
  7.350  -12.5225    1.2955  -12.5846    1.4045  -12.5431    1.3610  -12.5550    1.2803  -12.4562    1.3605  -12.4752    1.4195
  7.360  -12.4703    1.2858  -12.5322    1.3940  -12.4909    1.3511  -12.5027    1.2707  -12.4045    1.3505  -12.4234    1.4089
  7.370  -12.4185    1.2762  -12.4802    1.3837  -12.4390    1.3413  -12.4508    1.2613  -12.3531    1.3407  -12.3719    1.3984
  7.380  -12.3669    1.2667  -12.4285    1.3735  -12.3874    1.3315  -12.3992    1.2520  -12.3021    1.3309  -12.3208    1.3881
  7.390  -12.3157    1.2573  -12.3771    1.3634  -12.3362    1.3219  -12.3480    1.2428  -12.2513    1.3213  -12.2700    1.3778
  7.400  -12.2648    1.2480  -12.3261    1.3535  -12.2852    1.3125  -12.2970    1.2337  -12.2009    1.3118  -12.2194    1.3677
  7.410  -12.2142    1.2389  -12.2753    1.3436  -12.2346    1.3031  -12.2464    1.2247  -12.1508    1.3024  -12.1692    1.3578
  7.420  -12.1640    1.2299  -12.2249    1.3339  -12.1843    1.2938  -12.1960    1.2159  -12.1010    1.2931  -12.1193    1.3479
  7.430  -12.1140    1.2209  -12.1748    1.3243  -12.1343    1.2847  -12.1460    1.2071  -12.0514    1.2839  -12.0697    1.3382
  7.440  -12.0643    1.2121  -12.1249    1.3148  -12.0845    1.2756  -12.0963    1.1984  -12.0022    1.2749  -12.0204    1.3285
  7.450  -12.0149    1.2034  -12.0754    1.3054  -12.0351    1.2667  -12.0468    1.1899  -11.9533    1.2659  -11.9714    1.3190
  7.460  -11.9659    1.1948  -12.0262    1.2961  -11.9860    1.2579  -11.9977    1.1814  -11.9047    1.2570  -11.9227    1.3096
  7.470  -11.9171    1.1863  -11.9773    1.2870  -11.9372    1.2491  -11.9489    1.1731  -11.8563    1.2483  -11.8742    1.3003
  7.480  -11.8686    1.1779  -11.9287    1.2779  -11.8886    1.2405  -11.9003    1.1648  -11.8083    1.2396  -11.8261    1.2912
  7.490  -11.8204    1.1696  -11.8803    1.2690  -11.8404    1.2320  -11.8520    1.1566  -11.7605    1.2310  -11.7782    1.2821
  7.500  -11.7725    1.1614  -11.8323    1.2601  -11.7924    1.2235  -11.8041    1.1486  -11.7130    1.2226  -11.7307    1.2731
  7.510  -11.7248    1.1533  -11.7845    1.2514  -11.7447    1.2152  -11.7564    1.1406  -11.6658    1.2142  -11.6833    1.2643
  7.520  -11.6775    1.1453  -11.7370    1.2427  -11.6973    1.2070  -11.7089    1.1327  -11.6189    1.2059  -11.6363    1.2555
  7.530  -11.6304    1.1373  -11.6898    1.2342  -11.6502    1.1988  -11.6618    1.1249  -11.5722    1.1978  -11.5896    1.2468
  7.540  -11.5835    1.1295  -11.6429    1.2257  -11.6033    1.1907  -11.6149    1.1173  -11.5258    1.1897  -11.5431    1.2383
  7.550  -11.5370    1.1218  -11.5962    1.2174  -11.5567    1.1828  -11.5683    1.1096  -11.4797    1.1817  -11.4968    1.2298
  7.560  -11.4907    1.1141  -11.5498    1.2091  -11.5104    1.1749  -11.5220    1.1021  -11.4338    1.1738  -11.4509    1.2214
  7.570  -11.4447    1.1065  -11.5037    1.2009  -11.4644    1.1671  -11.4759    1.0947  -11.3882    1.1660  -11.4052    1.2132
  7.580  -11.3989    1.0991  -11.4579    1.1929  -11.4186    1.1594  -11.4301    1.0873  -11.3428    1.1582  -11.3598    1.2050
  7.590  -11.3534    1.0917  -11.4123    1.1849  -11.3730    1.1518  -11.3845    1.0801  -11.2977    1.1506  -11.3146    1.1969
  7.600  -11.3082    1.0844  -11.3670    1.1770  -11.3277    1.1443  -11.3392    1.0729  -11.2529    1.1430  -11.2696    1.1889
  7.610  -11.2632    1.0772  -11.3219    1.1692  -11.2827    1.1368  -11.2942    1.0658  -11.2083    1.1356  -11.2250    1.1810
  7.620  -11.2185    1.0700  -11.2771    1.1614  -11.2379    1.1294  -11.2494    1.0588  -11.1640    1.1282  -11.1805    1.1732
  7.630  -11.1740    1.0630  -11.2325    1.1538  -11.1934    1.1222  -11.2049    1.0518  -11.1199    1.1209  -11.1364    1.1654
  7.640  -11.1298    1.0560  -11.1882    1.1462  -11.1491    1.1150  -11.1606    1.0450  -11.0760    1.1136  -11.0924    1.1578
  7.650  -11.0858    1.0491  -11.1441    1.1388  -11.1051    1.1078  -11.1165    1.0382  -11.0324    1.1065  -11.0487    1.1502
  7.660  -11.0420    1.0423  -11.1003    1.1314  -11.0613    1.1008  -11.0727    1.0315  -10.9890    1.0994  -11.0053    1.1427
  7.670  -10.9985    1.0355  -11.0567    1.1241  -11.0177    1.0938  -11.0291    1.0248  -10.9459    1.0924  -10.9620    1.1353
  7.680  -10.9552    1.0288  -11.0134    1.1168  -10.9744    1.0869  -10.9858    1.0183  -10.9030    1.0855  -10.9190    1.1280
  7.690  -10.9122    1.0223  -10.9703    1.1097  -10.9313    1.0801  -10.9427    1.0118  -10.8603    1.0786  -10.8763    1.1208
  7.700  -10.8693    1.0157  -10.9274    1.1026  -10.8885    1.0734  -10.8998    1.0053  -10.8178    1.0719  -10.8338    1.1136
  7.710  -10.8268    1.0093  -10.8848    1.0956  -10.8458    1.0667  -10.8572    0.9990  -10.7756    1.0652  -10.7915    1.1066
  7.720  -10.7844    1.0029  -10.8424    1.0887  -10.8034    1.0601  -10.8148    0.9927  -10.7336    1.0585  -10.7494    1.0996
  7.730  -10.7423    0.9966  -10.8002    1.0819  -10.7613    1.0536  -10.7726    0.9865  -10.6919    1.0520  -10.7075    1.0926
  7.740  -10.7004    0.9904  -10.7582    1.0751  -10.7193    1.0471  -10.7307    0.9804  -10.6503    1.0455  -10.6659    1.0858
  7.750  -10.6587    0.9842  -10.7165    1.0684  -10.6776    1.0407  -10.6889    0.9743  -10.6090    1.0391  -10.6245    1.0790
  7.760  -10.6172    0.9781  -10.6750    1.0617  -10.6361    1.0344  -10.6474    0.9683  -10.5679    1.0327  -10.5833    1.0723
  7.770  -10.5759    0.9721  -10.6337    1.0552  -10.5948    1.0281  -10.6061    0.9624  -10.5269    1.0264  -10.5423    1.0657
  7.780  -10.5349    0.9661  -10.5926    1.0487  -10.5537    1.0220  -10.5650    0.9565  -10.4862    1.0202  -10.5015    1.0591
  7.790  -10.4940    0.9602  -10.5518    1.0423  -10.5128    1.0158  -10.5241    0.9507  -10.4458    1.0141  -10.4610    1.0526
  7.800  -10.4534    0.9544  -10.5112    1.0359  -10.4721    1.0098  -10.4834    0.9449  -10.4055    1.0080  -10.4206    1.0462
  7.810  -10.4130    0.9486  -10.4707    1.0296  -10.4317    1.0038  -10.4430    0.9393  -10.3654    1.0020  -10.3805    1.0399
  7.820  -10.3728    0.9429  -10.4305    1.0234  -10.3914    0.9979  -10.4027    0.9336  -10.3255    0.9960  -10.3405    1.0336
  7.830  -10.3328    0.9373  -10.3905    1.0173  -10.3514    0.9920  -10.3627    0.9281  -10.2859    0.9901  -10.3008    1.0274
  7.840  -10.2930    0.9317  -10.3507    1.0112  -10.3115    0.9862  -10.3228    0.9226  -10.2464    0.9843  -10.2612    1.0212
  7.850  -10.2533    0.9262  -10.3111    1.0052  -10.2718    0.9805  -10.2831    0.9172  -10.2071    0.9786  -10.2219    1.0152
  7.860  -10.2139    0.9207  -10.2717    0.9992  -10.2324    0.9748  -10.2437    0.9118  -10.1680    0.9729  -10.1827    1.0092
  7.870  -10.1747    0.9153  -10.2325    0.9933  -10.1931    0.9692  -10.2044    0.9065  -10.1291    0.9672  -10.1437    1.0032
  7.880  -10.1357    0.9100  -10.1935    0.9875  -10.1540    0.9637  -10.1653    0.9012  -10.0904    0.9616  -10.1050    0.9973
  7.890  -10.0968    0.9047  -10.1546    0.9817  -10.1152    0.9582  -10.1265    0.8960  -10.0519    0.9561  -10.0664    0.9915
  7.900  -10.0581    0.8995  -10.1160    0.9760  -10.0765    0.9528  -10.0878    0.8909  -10.0136    0.9507  -10.0280    0.9858
  7.910  -10.0197    0.8943  -10.0776    0.9703  -10.0380    0.9474  -10.0493    0.8858   -9.9754    0.9453   -9.9897    0.9801
  7.920   -9.9814    0.8892  -10.0393    0.9647   -9.9996    0.9421  -10.0109    0.8808   -9.9375    0.9399   -9.9517    0.9744
  7.930   -9.9433    0.8842  -10.0013    0.9592   -9.9615    0.9368   -9.9728    0.8758   -9.8997    0.9346   -9.9139    0.9689
  7.940   -9.9054    0.8792   -9.9634    0.9537   -9.9235    0.9316   -9.9348    0.8709   -9.8621    0.9294   -9.8762    0.9633
  7.950   -9.8676    0.8743   -9.9257    0.9483   -9.8857    0.9265   -9.8971    0.8660   -9.8247    0.9242   -9.8387    0.9579
  7.960   -9.8300    0.8694   -9.8882    0.9430   -9.8481    0.9214   -9.8595    0.8612   -9.7874    0.9191   -9.8014    0.9525
  7.970   -9.7926    0.8646   -9.8509    0.9377   -9.8107    0.9164   -9.8220    0.8565   -9.7503    0.9140   -9.7642    0.9472
  7.980   -9.7554    0.8598   -9.8137    0.9324   -9.7734    0.9114   -9.7848    0.8518   -9.7134    0.9090   -9.7272    0.9419
  7.990   -9.7183    0.8551   -9.7767    0.9272   -9.7363    0.9065   -9.7477    0.8471   -9.6767    0.9041   -9.6904    0.9367
  8.000   -9.6814    0.8504   -9.7399    0.9221   -9.6993    0.9016   -9.7108    0.8425   -9.6401    0.8992   -9.6538    0.9315
  8.010   -9.6447    0.8458   -9.7033    0.9170   -9.6626    0.8968   -9.6740    0.8380   -9.6037    0.8943   -9.6173    0.9264
  8.020   -9.6081    0.8413   -9.6668    0.9120   -9.6260    0.8921   -9.6374    0.8335   -9.5674    0.8895   -9.5810    0.9214
  8.030   -9.5717    0.8368   -9.6305    0.9070   -9.5895    0.8874   -9.6010    0.8291   -9.5313    0.8848   -9.5448    0.9164
  8.040   -9.5355    0.8324   -9.5944    0.9021   -9.5532    0.8827   -9.5647    0.8247   -9.4954    0.8801   -9.5088    0.9114
  8.050   -9.4994    0.8280   -9.5584    0.8972   -9.5171    0.8781   -9.5286    0.8204   -9.4596    0.8755   -9.4730    0.9065
  8.060   -9.4635    0.8236   -9.5226    0.8924   -9.4811    0.8736   -9.4927    0.8161   -9.4240    0.8709   -9.4373    0.9017
  8.070   -9.4277    0.8193   -9.4870    0.8876   -9.4453    0.8691   -9.4569    0.8118   -9.3885    0.8664   -9.4018    0.8969
  8.080   -9.3921    0.8151   -9.4515    0.8829   -9.4097    0.8647   -9.4213    0.8077   -9.3532    0.8619   -9.3664    0.8922
  8.090   -9.3566    0.8109   -9.4162    0.8783   -9.3741    0.8603   -9.3858    0.8035   -9.3181    0.8575   -9.3312    0.8876
  8.100   -9.3212    0.8068   -9.3810    0.8737   -9.3388    0.8560   -9.3504    0.7995   -9.2830    0.8531   -9.2961    0.8830
  8.110   -9.2861    0.8027   -9.3460    0.8691   -9.3035    0.8517   -9.3152    0.7954   -9.2482    0.8488   -9.2612    0.8784
  8.120   -9.2510    0.7987   -9.3111    0.8646   -9.2685    0.8474   -9.2802    0.7914   -9.2134    0.8445   -9.2264    0.8739
  8.130   -9.2161    0.7947   -9.2764    0.8601   -9.2335    0.8433   -9.2453    0.7875   -9.1788    0.8403   -9.1917    0.8695
  8.140   -9.1813    0.7908   -9.2418    0.8557   -9.1987    0.8391   -9.2105    0.7836   -9.1444    0.8361   -9.1572    0.8651
  8.150   -9.1467    0.7869   -9.2074    0.8514   -9.1640    0.8351   -9.1759    0.7798   -9.1101    0.8320   -9.1228    0.8607
  8.160   -9.1122    0.7830   -9.1731    0.8471   -9.1295    0.8310   -9.1414    0.7760   -9.0759    0.8279   -9.0886    0.8564
  8.170   -9.0779    0.7793   -9.1390    0.8428   -9.0951    0.8271   -9.1071    0.7723   -9.0418    0.8239   -9.0545    0.8522
  8.180   -9.0436    0.7755   -9.1050    0.8386   -9.0609    0.8232   -9.0728    0.7686   -9.0079    0.8199   -9.0205    0.8480
  8.190   -9.0096    0.7718   -9.0711    0.8344   -9.0267    0.8193   -9.0387    0.7650   -8.9741    0.8160   -8.9867    0.8439
  8.200   -8.9756    0.7682   -9.0374    0.8303   -8.9927    0.8155   -9.0048    0.7614   -8.9405    0.8121   -8.9530    0.8398
  8.210   -8.9417    0.7646   -9.0038    0.8263   -8.9588    0.8117   -8.9710    0.7579   -8.9070    0.8083   -8.9194    0.8357
  8.220   -8.9080    0.7611   -8.9703    0.8223   -8.9251    0.8080   -8.9373    0.7544   -8.8735    0.8045   -8.8859    0.8318
  8.230   -8.8744    0.7576   -8.9370    0.8183   -8.8914    0.8043   -8.9037    0.7509   -8.8403    0.8007   -8.8526    0.8278
  8.240   -8.8409    0.7542   -8.9038    0.8144   -8.8579    0.8007   -8.8702    0.7475   -8.8071    0.7971   -8.8194    0.8240
  8.250   -8.8076    0.7508   -8.8707    0.8105   -8.8245    0.7971   -8.8369    0.7442   -8.7740    0.7934   -8.7862    0.8201
  8.260   -8.7743    0.7475   -8.8378    0.8067   -8.7912    0.7936   -8.8037    0.7409   -8.7411    0.7899   -8.7533    0.8164
  8.270   -8.7412    0.7442   -8.8049    0.8029   -8.7580    0.7902   -8.7705    0.7377   -8.7083    0.7863   -8.7204    0.8126
  8.280   -8.7081    0.7410   -8.7722    0.7992   -8.7250    0.7868   -8.7375    0.7345   -8.6756    0.7829   -8.6876    0.8090
  8.290   -8.6752    0.7378   -8.7397    0.7955   -8.6920    0.7834   -8.7047    0.7314   -8.6430    0.7794   -8.6550    0.8054
  8.300   -8.6424    0.7347   -8.7072    0.7919   -8.6591    0.7801   -8.6719    0.7283   -8.6105    0.7761   -8.6224    0.8018
  8.310   -8.6097    0.7317   -8.6749    0.7883   -8.6264    0.7769   -8.6392    0.7252   -8.5781    0.7727   -8.5900    0.7983
  8.320   -8.5771    0.7286   -8.6426    0.7847   -8.5937    0.7737   -8.6066    0.7223   -8.5458    0.7695   -8.5576    0.7948
  8.330   -8.5446    0.7257   -8.6105    0.7813   -8.5612    0.7706   -8.5742    0.7193   -8.5136    0.7662   -8.5254    0.7914
  8.340   -8.5121    0.7228   -8.5785    0.7778   -8.5287    0.7675   -8.5418    0.7165   -8.4815    0.7631   -8.4933    0.7881
  8.350   -8.4798    0.7199   -8.5466    0.7744   -8.4964    0.7644   -8.5095    0.7136   -8.4495    0.7600   -8.4612    0.7848
  8.360   -8.4476    0.7171   -8.5148    0.7711   -8.4641    0.7615   -8.4774    0.7109   -8.4176    0.7569   -8.4293    0.7816
  8.370   -8.4154    0.7144   -8.4831    0.7678   -8.4319    0.7586   -8.4453    0.7081   -8.3858    0.7539   -8.3974    0.7784
  8.380   -8.3834    0.7117   -8.4515    0.7645   -8.3998    0.7557   -8.4133    0.7055   -8.3541    0.7509   -8.3656    0.7753
  8.390   -8.3514    0.7091   -8.4200    0.7614   -8.3678    0.7529   -8.3814    0.7029   -8.3224    0.7480   -8.3339    0.7722
  8.400   -8.3195    0.7065   -8.3886    0.7582   -8.3358    0.7502   -8.3496    0.7003   -8.2909    0.7452   -8.3023    0.7692
  8.410   -8.2877    0.7040   -8.3573    0.7551   -8.3040    0.7475   -8.3178    0.6978   -8.2594    0.7424   -8.2708    0.7662
  8.420   -8.2559    0.7015   -8.3261    0.7521   -8.2722    0.7449   -8.2862    0.6954   -8.2280    0.7397   -8.2394    0.7633
  8.430   -8.2242    0.6992   -8.2950    0.7491   -8.2405    0.7423   -8.2546    0.6930   -8.1967    0.7370   -8.2080    0.7605
  8.440   -8.1926    0.6968   -8.2640    0.7461   -8.2088    0.7398   -8.2231    0.6907   -8.1654    0.7344   -8.1767    0.7577
  8.450   -8.1611    0.6946   -8.2330    0.7432   -8.1772    0.7374   -8.1916    0.6885   -8.1342    0.7318   -8.1455    0.7550
  8.460   -8.1296    0.6924   -8.2022    0.7404   -8.1457    0.7350   -8.1603    0.6863   -8.1031    0.7293   -8.1143    0.7524
  8.470   -8.0982    0.6902   -8.1714    0.7376   -8.1143    0.7327   -8.1290    0.6842   -8.0721    0.7269   -8.0832    0.7498
  8.480   -8.0668    0.6882   -8.1407    0.7349   -8.0829    0.7305   -8.0977    0.6821   -8.0411    0.7245   -8.0522    0.7473
  8.490   -8.0355    0.6862   -8.1101    0.7322   -8.0515    0.7283   -8.0665    0.6801   -8.0102    0.7222   -8.0212    0.7448
  8.500   -8.0043    0.6843   -8.0795    0.7296   -8.0202    0.7263   -8.0354    0.6782   -7.9793    0.7200   -7.9903    0.7424
  8.510   -7.9731    0.6824   -8.0491    0.7270   -7.9890    0.7242   -8.0043    0.6763   -7.9484    0.7178   -7.9594    0.7401
  8.520   -7.9419    0.6806   -8.0187    0.7245   -7.9578    0.7223   -7.9733    0.6745   -7.9177    0.7157   -7.9286    0.7378
  8.530   -7.9108    0.6789   -7.9883    0.7221   -7.9266    0.7204   -7.9423    0.6728   -7.8869    0.7137   -7.8978    0.7357
  8.540   -7.8797    0.6773   -7.9581    0.7197   -7.8955    0.7187   -7.9114    0.6712   -7.8562    0.7117   -7.8671    0.7336
  8.550   -7.8486    0.6757   -7.9278    0.7174   -7.8644    0.7170   -7.8805    0.6696   -7.8256    0.7098   -7.8364    0.7315
  8.560   -7.8176    0.6743   -7.8977    0.7151   -7.8333    0.7154   -7.8497    0.6681   -7.7950    0.7080   -7.8058    0.7296
  8.570   -7.7866    0.6729   -7.8676    0.7129   -7.8023    0.7138   -7.8189    0.6667   -7.7644    0.7063   -7.7751    0.7277
  8.580   -7.7556    0.6716   -7.8376    0.7108   -7.7713    0.7124   -7.7881    0.6654   -7.7338    0.7047   -7.7445    0.7259
  8.590   -7.7246    0.6704   -7.8076    0.7087   -7.7403    0.7110   -7.7573    0.6642   -7.7033    0.7031   -7.7140    0.7242
  8.600   -7.6937    0.6693   -7.7776    0.7067   -7.7093    0.7098   -7.7266    0.6631   -7.6728    0.7016   -7.6834    0.7226
  8.610   -7.6627    0.6683   -7.7477    0.7047   -7.6783    0.7086   -7.6958    0.6620   -7.6423    0.7002   -7.6529    0.7211
  8.620   -7.6318    0.6674   -7.7179    0.7029   -7.6473    0.7076   -7.6651    0.6611   -7.6118    0.6989   -7.6223    0.7197
  8.630   -7.6008    0.6666   -7.6880    0.7011   -7.6163    0.7067   -7.6344    0.6602   -7.5813    0.6977   -7.5918    0.7183
  8.640   -7.5699    0.6660   -7.6583    0.6994   -7.5853    0.7058   -7.6037    0.6595   -7.5508    0.6966   -7.5613    0.7171
  8.650   -7.5389    0.6654   -7.6285    0.6977   -7.5543    0.7051   -7.5730    0.6589   -7.5203    0.6956   -7.5308    0.7160
  8.660   -7.5079    0.6649   -7.5988    0.6961   -7.5233    0.7045   -7.5423    0.6584   -7.4898    0.6947   -7.5002    0.7150
  8.670   -7.4769    0.6646   -7.5691    0.6946   -7.4922    0.7041   -7.5115    0.6580   -7.4593    0.6940   -7.4697    0.7140
  8.680   -7.4459    0.6644   -7.5394    0.6932   -7.4611    0.7037   -7.4808    0.6577   -7.4287    0.6933   -7.4391    0.7133
  8.690   -7.4148    0.6644   -7.5097    0.6919   -7.4300    0.7035   -7.4500    0.6575   -7.3982    0.6927   -7.4085    0.7126
  8.700   -7.3837    0.6644   -7.4800    0.6907   -7.3989    0.7035   -7.4193    0.6575   -7.3676    0.6923   -7.3779    0.7120
  8.710   -7.3525    0.6647   -7.4504    0.6896   -7.3677    0.7036   -7.3884    0.6577   -7.3370    0.6920   -7.3473    0.7116
  8.720   -7.3213    0.6651   -7.4207    0.6885   -7.3364    0.7039   -7.3576    0.6579   -7.3063    0.6919   -7.3166    0.7114
  8.730   -7.2900    0.6656   -7.3911    0.6876   -7.3051    0.7043   -7.3267    0.6584   -7.2756    0.6919   -7.2858    0.7113
  8.740   -7.2586    0.6663   -7.3614    0.6867   -7.2737    0.7049   -7.2957    0.6589   -7.2448    0.6920   -7.2550    0.7113
  8.750   -7.2272    0.6672   -7.3317    0.6860   -7.2422    0.7057   -7.2647    0.6597   -7.2139    0.6924   -7.2241    0.7115
  8.760   -7.1957    0.6683   -7.3020    0.6854   -7.2107    0.7067   -7.2336    0.6606   -7.1830    0.6928   -7.1932    0.7118
  8.770   -7.1640    0.6696   -7.2723    0.6849   -7.1790    0.7078   -7.2025    0.6618   -7.1520    0.6935   -7.1622    0.7124
  8.780   -7.1323    0.6712   -7.2426    0.6845   -7.1473    0.7092   -7.1712    0.6631   -7.1210    0.6943   -7.1311    0.7131
  8.790   -7.1005    0.6729   -7.2128    0.6842   -7.1154    0.7109   -7.1399    0.6646   -7.0898    0.6954   -7.0999    0.7140
  8.800   -7.0686    0.6749   -7.1830    0.6841   -7.0834    0.7127   -7.1085    0.6664   -7.0585    0.6966   -7.0686    0.7152
  8.810   -7.0365    0.6771   -7.1531    0.6841   -7.0514    0.7149   -7.0770    0.6684   -7.0272    0.6981   -7.0372    0.7165
  8.820   -7.0043    0.6796   -7.1232    0.6843   -7.0191    0.7173   -7.0454    0.6706   -6.9957    0.6998   -7.0057    0.7181
  8.830   -6.9720    0.6824   -7.0933    0.6846   -6.9868    0.7200   -7.0137    0.6731   -6.9640    0.7017   -6.9740    0.7200
  8.840   -6.9394    0.6855   -7.0632    0.6850   -6.9542    0.7230   -6.9818    0.6759   -6.9323    0.7039   -6.9423    0.7221
  8.850   -6.9068    0.6890   -7.0331    0.6857   -6.9215    0.7263   -6.9498    0.6790   -6.9004    0.7064   -6.9103    0.7245
  8.860   -6.8739    0.6927   -7.0030    0.6865   -6.8887    0.7300   -6.9177    0.6824   -6.8683    0.7092   -6.8783    0.7271
  8.870   -6.8409    0.6969   -6.9727    0.6875   -6.8556    0.7340   -6.8854    0.6862   -6.8361    0.7123   -6.8460    0.7301
  8.880   -6.8076    0.7014   -6.9424    0.6887   -6.8224    0.7385   -6.8529    0.6903   -6.8037    0.7158   -6.8136    0.7335
  8.890   -6.7742    0.7064   -6.9119    0.6901   -6.7889    0.7434   -6.8203    0.6948   -6.7710    0.7196   -6.7810    0.7372
  8.900   -6.7405    0.7118   -6.8814    0.6917   -6.7552    0.7487   -6.7875    0.6997   -6.7382    0.7238   -6.7482    0.7413
  8.910   -6.7066    0.7177   -6.8507    0.6935   -6.7213    0.7546   -6.7545    0.7050   -6.7052    0.7284   -6.7151    0.7458
  8.920   -6.6725    0.7241   -6.8199    0.6956   -6.6872    0.7610   -6.7213    0.7108   -6.6720    0.7334   -6.6819    0.7508
  8.930   -6.6381    0.7311   -6.7890    0.6980   -6.6528    0.7679   -6.6880    0.7172   -6.6385    0.7390   -6.6484    0.7562
  8.940   -6.6034    0.7387   -6.7579    0.7006   -6.6182    0.7755   -6.6544    0.7241   -6.6048    0.7450   -6.6147    0.7621
  8.950   -6.5685    0.7470   -6.7267    0.7035   -6.5833    0.7837   -6.6205    0.7315   -6.5709    0.7516   -6.5808    0.7687
  8.960   -6.5333    0.7560   -6.6953    0.7067   -6.5481    0.7927   -6.5865    0.7396   -6.5366    0.7588   -6.5465    0.7758
  8.970   -6.4978    0.7657   -6.6637    0.7103   -6.5126    0.8024   -6.5522    0.7484   -6.5021    0.7667   -6.5120    0.7835
  8.980   -6.4620    0.7763   -6.6320    0.7142   -6.4769    0.8129   -6.5177    0.7580   -6.4674    0.7752   -6.4772    0.7920
  8.990   -6.4259    0.7878   -6.6001    0.7185   -6.4409    0.8244   -6.4830    0.7683   -6.4323    0.7846   -6.4422    0.8012
  9.000   -6.3895    0.8003   -6.5679    0.7232   -6.4046    0.8369   -6.4480    0.7795   -6.3969    0.7947   -6.4068    0.8112
  9.010   -6.3528    0.8138   -6.5356    0.7283   -6.3680    0.8504   -6.4128    0.7916   -6.3612    0.8057   -6.3712    0.8222
  9.020   -6.3158    0.8285   -6.5030    0.7339   -6.3311    0.8651   -6.3773    0.8048   -6.3253    0.8177   -6.3352    0.8341
  9.030   -6.2785    0.8444   -6.4702    0.7400   -6.2940    0.8810   -6.3417    0.8190   -6.2890    0.8307   -6.2990    0.8470
  9.040   -6.2410    0.8617   -6.4371    0.7466   -6.2567    0.8984   -6.3059    0.8345   -6.2525    0.8449   -6.2624    0.8611
  9.050   -6.2032    0.8805   -6.4038    0.7538   -6.2191    0.9172   -6.2699    0.8512   -6.2157    0.8604   -6.2256    0.8765
  9.060   -6.1652    0.9010   -6.3703    0.7617   -6.1814    0.9377   -6.2338    0.8694   -6.1786    0.8772   -6.1886    0.8932
  9.070   -6.1271    0.9232   -6.3364    0.7702   -6.1436    0.9599   -6.1976    0.8890   -6.1413    0.8954   -6.1513    0.9114
  9.080   -6.0889    0.9473   -6.3023    0.7794   -6.1057    0.9841   -6.1614    0.9104   -6.1038    0.9154   -6.1139    0.9312
  9.090   -6.0507    0.9736   -6.2679    0.7894   -6.0679    1.0104   -6.1252    0.9335   -6.0662    0.9370   -6.0763    0.9527
  9.100   -6.0126    1.0022   -6.2332    0.8002   -6.0302    1.0390   -6.0892    0.9586   -6.0286    0.9606   -6.0387    0.9762
  9.110   -5.9747    1.0333   -6.1982    0.8120   -5.9929    1.0701   -6.0535    0.9859   -5.9910    0.9863   -6.0012    1.0019
  9.120   -5.9372    1.0671   -6.1629    0.8247   -5.9560    1.1039   -6.0182    1.0154   -5.9536    1.0143   -5.9638    1.0297
  9.130   -5.9004    1.1039   -6.1273    0.8386   -5.9199    1.1406   -5.9835    1.0474   -5.9164    1.0448   -5.9267    1.0601
  9.140   -5.8644    1.1439   -6.0915    0.8536   -5.8847    1.1805   -5.9495    1.0820   -5.8798    1.0780   -5.8901    1.0932
  9.150   -5.8296    1.1874   -6.0553    0.8698   -5.8508    1.2237   -5.9167    1.1195   -5.8439    1.1141   -5.8543    1.1292
  9.160   -5.7964    1.2346   -6.0190    0.8875   -5.8185    1.2706   -5.8853    1.1600   -5.8090    1.1533   -5.8195    1.1684
  9.170   -5.7652    1.2857   -5.9824    0.9067   -5.7884    1.3212   -5.8556    1.2037   -5.7754    1.1960   -5.7860    1.2109
  9.180   -5.7366    1.3410   -5.9456    0.9275   -5.7610    1.3759   -5.8281    1.2507   -5.7436    1.2422   -5.7543    1.2569
  9.190   -5.7113    1.4007   -5.9087    0.9501   -5.7370    1.4347   -5.8033    1.3011   -5.7141    1.2921   -5.7248    1.3067
  9.200   -5.6899    1.4647   -5.8717    0.9747   -5.7170    1.4976   -5.7819    1.3549   -5.6873    1.3459   -5.6982    1.3604
  9.210   -5.6734    1.5332   -5.8348    1.0014   -5.7019    1.5646   -5.7644    1.4122   -5.6641    1.4037   -5.6751    1.4180
  9.220   -5.6627    1.6059   -5.7980    1.0304   -5.6927    1.6355   -5.7517    1.4727   -5.6451    1.4654   -5.6562    1.4796
  9.230   -5.6590    1.6826   -5.7614    1.0620   -5.6903    1.7100   -5.7445    1.5361   -5.6313    1.5309   -5.6425    1.5449
  9.240   -5.6635    1.7626   -5.7253    1.0963   -5.6959    1.7873   -5.7436    1.6019   -5.6235    1.5999   -5.6348    1.6136
  9.250   -5.6772    1.8452   -5.6899    1.1335   -5.7105    1.8666   -5.7498    1.6695   -5.6227    1.6717   -5.6341    1.6852
  9.260   -5.7014    1.9290   -5.6553    1.1740   -5.7350    1.9467   -5.7640    1.7378   -5.6298    1.7456   -5.6414    1.7589
  9.270   -5.7371    2.0125   -5.6220    1.2180   -5.7704    2.0260   -5.7867    1.8057   -5.6458    1.8206   -5.6575    1.8336
  9.280   -5.7850    2.0938   -5.5903    1.2657   -5.8171    2.1027   -5.8183    1.8719   -5.6713    1.8952   -5.6832    1.9080
  9.290   -5.8454    2.1706   -5.5607    1.3173   -5.8753    2.1747   -5.8588    1.9346   -5.7069    1.9679   -5.7188    1.9803
  9.300   -5.9181    2.2402   -5.5337    1.3731   -5.9447    2.2398   -5.9081    1.9922   -5.7524    2.0367   -5.7644    2.0488
  9.310   -6.0022    2.3002   -5.5099    1.4332   -6.0242    2.2956   -5.9652    2.0432   -5.8076    2.0999   -5.8197    2.1117
  9.320   -6.0961    2.3480   -5.4902    1.4977   -6.1124    2.3401   -6.0291    2.0858   -5.8715    2.1555   -5.8837    2.1669
  9.330   -6.1975    2.3815   -5.4753    1.5667   -6.2070    2.3715   -6.0982    2.1191   -5.9428    2.2020   -5.9550    2.2129
  9.340   -6.3036    2.3994   -5.4664    1.6400   -6.3057    2.3888   -6.1706    2.1423   -6.0196    2.2381   -6.0318    2.2486
  9.350   -6.4111    2.4009   -5.4644    1.7173   -6.4056    2.3914   -6.2445    2.1552   -6.0999    2.2632   -6.1121    2.2732
  9.360   -6.5168    2.3862   -5.4706    1.7980   -6.5041    2.3797   -6.3178    2.1580   -6.1816    2.2771   -6.1938    2.2866
  9.370   -6.6177    2.3565   -5.4862    1.8813   -6.5984    2.3545   -6.3891    2.1516   -6.2629    2.2803   -6.2749    2.2892
  9.380   -6.7113    2.3134   -5.5124    1.9661   -6.6867    2.3174   -6.4571    2.1370   -6.3420    2.2736   -6.3538    2.2820
  9.390   -6.7957    2.2592   -5.5502    2.0507   -6.7673    2.2701   -6.5209    2.1155   -6.4179    2.2582   -6.4294    2.2661
  9.400   -6.8697    2.1963   -5.6004    2.1333   -6.8392    2.2146   -6.5802    2.0883   -6.4898    2.2352   -6.5009    2.2427
  9.410   -6.9329    2.1270   -5.6635    2.2115   -6.9020    2.1528   -6.6350    2.0565   -6.5573    2.2058   -6.5679    2.2128
  9.420   -6.9853    2.0536   -5.7393    2.2827   -6.9557    2.0864   -6.6854    2.0209   -6.6203    2.1708   -6.6305    2.1775
  9.430   -7.0275    1.9780   -5.8273    2.3444   -7.0004    2.0171   -6.7317    1.9821   -6.6788    2.1309   -6.6885    2.1373
  9.440   -7.0602    1.9015   -5.9257    2.3938   -7.0367    1.9460   -6.7743    1.9404   -6.7330    2.0866   -6.7422    2.0927
  9.450   -7.0843    1.8254   -6.0326    2.4286   -7.0651    1.8741   -6.8133    1.8959   -6.7827    2.0381   -6.7914    2.0441
  9.460   -7.1007    1.7504   -6.1450    2.4471   -7.0863    1.8022   -6.8486    1.8486   -6.8279    1.9857   -6.8360    1.9916
  9.470   -7.1103    1.6771   -6.2598    2.4483   -7.1007    1.7309   -6.8801    1.7986   -6.8681    1.9295   -6.8757    1.9354
  9.480   -7.1137    1.6059   -6.3734    2.4321   -7.1089    1.6606   -6.9076    1.7461   -6.9030    1.8701   -6.9101    1.8761
  9.490   -7.1117    1.5372   -6.4824    2.3992   -7.1114    1.5919   -6.9306    1.6913   -6.9322    1.8079   -6.9388    1.8139
  9.500   -7.1049    1.4710   -6.5841    2.3512   -7.1085    1.5251   -6.9488    1.6346   -6.9553    1.7436   -6.9616    1.7498
  9.510   -7.0938    1.4076   -6.6759    2.2903   -7.1009    1.4605   -6.9621    1.5767   -6.9723    1.6780   -6.9782    1.6843
  9.520   -7.0788    1.3470   -6.7563    2.2190   -7.0889    1.3983   -6.9702    1.5181   -6.9830    1.6119   -6.9886    1.6183
  9.530   -7.0606    1.2894   -6.8243    2.1400   -7.0730    1.3389   -6.9732    1.4595   -6.9877    1.5461   -6.9930    1.5527
  9.540   -7.0394    1.2349   -6.8797    2.0560   -7.0537    1.2825   -6.9714    1.4016   -6.9865    1.4813   -6.9916    1.4882
  9.550   -7.0158    1.1833   -6.9227    1.9692   -7.0315    1.2290   -6.9649    1.3450   -6.9801    1.4184   -6.9850    1.4255
  9.560   -6.9900    1.1348   -6.9541    1.8816   -7.0068    1.1785   -6.9543    1.2901   -6.9689    1.3576   -6.9736    1.3649
  9.570   -6.9626    1.0892   -6.9748    1.7950   -6.9801    1.1312   -6.9399    1.2373   -6.9536    1.2995   -6.9581    1.3070
  9.580   -6.9338    1.0464   -6.9861    1.7106   -6.9518    1.0868   -6.9222    1.1868   -6.9346    1.2444   -6.9391    1.2520
  9.590   -6.9038    1.0064   -6.9890    1.6293   -6.9221    1.0452   -6.9017    1.1389   -6.9126    1.1922   -6.9170    1.2001
  9.600   -6.8731    0.9690   -6.9848    1.5518   -6.8915    1.0065   -6.8789    1.0936   -6.8880    1.1431   -6.8924    1.1512
  9.610   -6.8417    0.9341   -6.9745    1.4783   -6.8601    0.9703   -6.8542    1.0509   -6.8615    1.0972   -6.8658    1.1053
  9.620   -6.8099    0.9015   -6.9592    1.4092   -6.8282    0.9366   -6.8278    1.0108   -6.8333    1.0542   -6.8376    1.0624
  9.630   -6.7779    0.8711   -6.9397    1.3444   -6.7961    0.9052   -6.8003    0.9732   -6.8039    1.0140   -6.8081    1.0224
  9.640   -6.7458    0.8427   -6.9169    1.2839   -6.7638    0.8760   -6.7718    0.9380   -6.7735    0.9766   -6.7778    0.9851
  9.650   -6.7137    0.8162   -6.8913    1.2275   -6.7314    0.8487   -6.7426    0.9051   -6.7425    0.9418   -6.7468    0.9504
  9.660   -6.6818    0.7915   -6.8637    1.1751   -6.6992    0.8233   -6.7128    0.8744   -6.7111    0.9094   -6.7154    0.9181
  9.670   -6.6500    0.7684   -6.8344    1.1264   -6.6671    0.7996   -6.6828    0.8457   -6.6794    0.8792   -6.6837    0.8880
  9.680   -6.6184    0.7468   -6.8039    1.0812   -6.6353    0.7774   -6.6526    0.8188   -6.6476    0.8511   -6.6519    0.8599
  9.690   -6.5871    0.7265   -6.7725    1.0392   -6.6037    0.7567   -6.6223    0.7937   -6.6159    0.8249   -6.6201    0.8338
  9.700   -6.5562    0.7075   -6.7405    1.0003   -6.5725    0.7373   -6.5920    0.7703   -6.5842    0.8005   -6.5885    0.8094
  9.710   -6.5256    0.6897   -6.7081    0.9642   -6.5417    0.7191   -6.5619    0.7483   -6.5528    0.7777   -6.5570    0.7866
  9.720   -6.4953    0.6730   -6.6755    0.9306   -6.5112    0.7020   -6.5319    0.7278   -6.5215    0.7564   -6.5258    0.7654
  9.730   -6.4655    0.6573   -6.6428    0.8994   -6.4811    0.6860   -6.5021    0.7085   -6.4906    0.7365   -6.4949    0.7455
  9.740   -6.4360    0.6425   -6.6102    0.8703   -6.4515    0.6709   -6.4726    0.6904   -6.4601    0.7178   -6.4644    0.7268
  9.750   -6.4070    0.6285   -6.5777    0.8433   -6.4222    0.6566   -6.4434    0.6734   -6.4298    0.7004   -6.4342    0.7094
  9.760   -6.3783    0.6153   -6.5455    0.8181   -6.3933    0.6432   -6.4145    0.6574   -6.4000    0.6839   -6.4043    0.6930
  9.770   -6.3501    0.6029   -6.5135    0.7945   -6.3649    0.6306   -6.3860    0.6424   -6.3706    0.6685   -6.3749    0.6776
  9.780   -6.3222    0.5911   -6.4819    0.7725   -6.3369    0.6186   -6.3577    0.6282   -6.3415    0.6540   -6.3459    0.6631
  9.790   -6.2947    0.5799   -6.4506    0.7519   -6.3092    0.6073   -6.3299    0.6148   -6.3129    0.6403   -6.3172    0.6494
  9.800   -6.2676    0.5694   -6.4197    0.7326   -6.2820    0.5965   -6.3023    0.6022   -6.2846    0.6274   -6.2890    0.6365
  9.810   -6.2409    0.5593   -6.3893    0.7145   -6.2551    0.5863   -6.2752    0.5902   -6.2568    0.6152   -6.2612    0.6243
  9.820   -6.2146    0.5498   -6.3592    0.6975   -6.2286    0.5766   -6.2483    0.5789   -6.2294    0.6037   -6.2338    0.6128
  9.830   -6.1886    0.5407   -6.3296    0.6816   -6.2025    0.5674   -6.2219    0.5682   -6.2023    0.5928   -6.2067    0.6018
  9.840   -6.1629    0.5320   -6.3004    0.6665   -6.1768    0.5586   -6.1957    0.5580   -6.1756    0.5824   -6.1800    0.5915
  9.850   -6.1376    0.5238   -6.2716    0.6523   -6.1513    0.5502   -6.1699    0.5483   -6.1493    0.5726   -6.1538    0.5816
  9.860   -6.1127    0.5159   -6.2432    0.6389   -6.1263    0.5422   -6.1445    0.5391   -6.1234    0.5633   -6.1278    0.5723
  9.870   -6.0881    0.5084   -6.2153    0.6263   -6.1015    0.5346   -6.1194    0.5303   -6.0979    0.5544   -6.1023    0.5633
  9.880   -6.0637    0.5012   -6.1878    0.6143   -6.0771    0.5272   -6.0945    0.5219   -6.0726    0.5459   -6.0771    0.5548
  9.890   -6.0397    0.4943   -6.1606    0.6029   -6.0530    0.5202   -6.0700    0.5139   -6.0478    0.5378   -6.0522    0.5467
  9.900   -6.0160    0.4877   -6.1339    0.5922   -6.0292    0.5135   -6.0459    0.5063   -6.0232    0.5301   -6.0277    0.5390
  9.910   -5.9926    0.4814   -6.1076    0.5819   -6.0057    0.5071   -6.0220    0.4990   -5.9990    0.5227   -6.0035    0.5316
  9.920   -5.9694    0.4753   -6.0816    0.5722   -5.9825    0.5009   -5.9984    0.4920   -5.9751    0.5157   -5.9796    0.5245
  9.930   -5.9466    0.4694   -6.0560    0.5629   -5.9595    0.4949   -5.9750    0.4853   -5.9515    0.5089   -5.9560    0.5177
  9.940   -5.9240    0.4638   -6.0308    0.5541   -5.9369    0.4892   -5.9520    0.4789   -5.9282    0.5024   -5.9326    0.5112
  9.950   -5.9016    0.4584   -6.0059    0.5457   -5.9145    0.4837   -5.9292    0.4727   -5.9052    0.4962   -5.9096    0.5050
  9.960   -5.8795    0.4532   -5.9813    0.5377   -5.8923    0.4784   -5.9067    0.4668   -5.8825    0.4902   -5.8869    0.4990
  9.970   -5.8577    0.4481   -5.9571    0.5300   -5.8704    0.4732   -5.8844    0.4611   -5.8600    0.4845   -5.8644    0.4932
  9.980   -5.8361    0.4433   -5.9332    0.5226   -5.8487    0.4683   -5.8624    0.4556   -5.8378    0.4789   -5.8422    0.4876
  9.990   -5.8147    0.4386   -5.9096    0.5156   -5.8273    0.4635   -5.8406    0.4504   -5.8158    0.4736   -5.8203    0.4823
 10.000   -5.7935    0.4340   -5.8863    0.5089   -5.8060    0.4589   -5.8191    0.4453   -5.7941    0.4685   -5.7985    0.4771
